5.00000 1282.000
5.04000 1262.000
5.08000 1245.000
5.12000 1189.000
5.16000 1219.000
5.20000 1164.000
5.24000 1165.000
5.28000 1229.000
5.32000 1167.000
5.36000 1178.000
5.40000 1203.000
5.44000 1149.000
5.48000 1165.000
5.52000 1162.000
5.56000 1155.000
5.60000 1088.000
5.64000 1133.000
5.68000 1134.000
5.72000 1060.000
5.76000 1124.000
5.80000 1106.000
5.84000 1014.000
5.88000 1074.000
5.92000 1116.000
5.96000 1101.000
6.00000 1016.000
6.04000 1078.000
6.08000 1069.000
6.12000 948.000
6.16000 1029.000
6.20000 1051.000
6.24000 1002.000
6.28000 1034.000
6.32000 1107.000
6.36000 998.000
6.40000 982.000
6.44000 1034.000
6.48000 986.000
6.52000 1041.000
6.56000 1021.000
6.60000 927.000
6.64000 950.000
6.68000 954.000
6.72000 942.000
6.76000 954.000
6.80000 940.000
6.84000 951.000
6.88000 935.000
6.92000 932.000
6.96000 923.000
7.00000 918.000
7.04000 928.000
7.08000 904.000
7.12000 849.000
7.16000 929.000
7.20000 872.000
7.24000 900.000
7.28000 916.000
7.32000 889.000
7.36000 908.000
7.40000 873.000
7.44000 856.000
7.48000 826.000
7.52000 872.000
7.56000 863.000
7.60000 891.000
7.64000 829.000
7.68000 898.000
7.72000 841.000
7.76000 860.000
7.80000 853.000
7.84000 831.000
7.88000 815.000
7.92000 831.000
7.96000 845.000
8.00000 897.000
8.04000 881.000
8.08000 872.000
8.12000 834.000
8.16000 843.000
8.20000 822.000
8.24000 861.000
8.28000 882.000
8.32000 903.000
8.36000 884.000
8.40000 893.000
8.44000 931.000
8.48000 965.000
8.52000 1055.000
8.56000 1144.000
8.60000 1267.000
8.64000 1400.000
8.68000 1622.000
8.72000 1965.000
8.76000 2476.000
8.80000 3482.000
8.84000 5361.000
8.88000 8977.000
8.92000 16587.000
8.96000 25498.000
9.00000 27105.000
9.04000 18973.000
9.08000 9985.000
9.12000 5663.000
9.16000 3354.000
9.20000 2114.000
9.24000 1431.000
9.28000 1141.000
9.32000 974.000
9.36000 894.000
9.40000 892.000
9.44000 839.000
9.48000 802.000
9.52000 718.000
9.56000 754.000
9.60000 690.000
9.64000 724.000
9.68000 702.000
9.72000 712.000
9.76000 715.000
9.80000 714.000
9.84000 729.000
9.88000 756.000
9.92000 681.000
9.96000 719.000
10.00000 713.000
10.04000 721.000
10.08000 684.000
10.12000 672.000
10.16000 756.000
10.20000 642.000
10.24000 701.000
10.28000 678.000
10.32000 711.000
10.36000 678.000
10.40000 707.000
10.44000 674.000
10.48000 682.000
10.52000 684.000
10.56000 723.000
10.60000 710.000
10.64000 665.000
10.68000 707.000
10.72000 663.000
10.76000 773.000
10.80000 821.000
10.84000 979.000
10.88000 1226.000
10.92000 1411.000
10.96000 1207.000
11.00000 918.000
11.04000 768.000
11.08000 726.000
11.12000 680.000
11.16000 635.000
11.20000 620.000
11.24000 645.000
11.28000 654.000
11.32000 619.000
11.36000 633.000
11.40000 641.000
11.44000 577.000
11.48000 630.000
11.52000 608.000
11.56000 549.000
11.60000 596.000
11.64000 615.000
11.68000 586.000
11.72000 578.000
11.76000 559.000
11.80000 557.000
11.84000 564.000
11.88000 578.000
11.92000 613.000
11.96000 551.000
12.00000 557.000
12.04000 565.000
12.08000 591.000
12.12000 644.000
12.16000 589.000
12.20000 599.000
12.24000 577.000
12.28000 657.000
12.32000 645.000
12.36000 663.000
12.40000 713.000
12.44000 701.000
12.48000 844.000
12.52000 1001.000
12.56000 1215.000
12.60000 1516.000
12.64000 1864.000
12.68000 1966.000
12.72000 1898.000
12.76000 1651.000
12.80000 1302.000
12.84000 1070.000
12.88000 871.000
12.92000 739.000
12.96000 616.000
13.00000 589.000
13.04000 595.000
13.08000 521.000
13.12000 518.000
13.16000 528.000
13.20000 533.000
13.24000 488.000
13.28000 567.000
13.32000 555.000
13.36000 541.000
13.40000 532.000
13.44000 547.000
13.48000 524.000
13.52000 527.000
13.56000 562.000
13.60000 524.000
13.64000 537.000
13.68000 547.000
13.72000 535.000
13.76000 551.000
13.80000 499.000
13.84000 499.000
13.88000 554.000
13.92000 533.000
13.96000 519.000
14.00000 502.000
14.04000 553.000
14.08000 497.000
14.12000 548.000
14.16000 526.000
14.20000 512.000
14.24000 508.000
14.28000 519.000
14.32000 541.000
14.36000 519.000
14.40000 527.000
14.44000 533.000
14.48000 538.000
14.52000 519.000
14.56000 531.000
14.60000 504.000
14.64000 496.000
14.68000 489.000
14.72000 538.000
14.76000 545.000
14.80000 530.000
14.84000 524.000
14.88000 507.000
14.92000 519.000
14.96000 594.000
15.00000 525.000
15.04000 562.000
15.08000 519.000
15.12000 578.000
15.16000 523.000
15.20000 606.000
15.24000 590.000
15.28000 582.000
15.32000 592.000
15.36000 637.000
15.40000 677.000
15.44000 660.000
15.48000 721.000
15.52000 747.000
15.56000 809.000
15.60000 970.000
15.64000 1085.000
15.68000 995.000
15.72000 897.000
15.76000 726.000
15.80000 629.000
15.84000 613.000
15.88000 565.000
15.92000 556.000
15.96000 578.000
16.00000 535.000
16.04000 543.000
16.08000 586.000
16.12000 577.000
16.16000 611.000
16.20000 613.000
16.24000 662.000
16.28000 583.000
16.32000 581.000
16.36000 601.000
16.40000 586.000
16.44000 555.000
16.48000 532.000
16.52000 541.000
16.56000 564.000
16.60000 565.000
16.64000 586.000
16.68000 604.000
16.72000 607.000
16.76000 592.000
16.80000 600.000
16.84000 644.000
16.88000 603.000
16.92000 672.000
16.96000 654.000
17.00000 642.000
17.04000 645.000
17.08000 690.000
17.12000 757.000
17.16000 799.000
17.20000 822.000
17.24000 864.000
17.28000 936.000
17.32000 822.000
17.36000 813.000
17.40000 829.000
17.44000 829.000
17.48000 952.000
17.52000 898.000
17.56000 980.000
17.60000 1058.000
17.64000 1306.000
17.68000 1652.000
17.72000 2117.000
17.76000 2913.000
17.80000 4239.000
17.84000 6370.000
17.88000 10248.000
17.92000 17637.000
17.96000 28835.000
18.00000 36896.000
18.04000 34156.000
18.08000 22874.000
18.12000 12832.000
18.16000 6873.000
18.20000 4131.000
18.24000 2548.000
18.28000 1756.000
18.32000 1269.000
18.36000 1085.000
18.40000 910.000
18.44000 877.000
18.48000 812.000
18.52000 824.000
18.56000 795.000
18.60000 747.000
18.64000 770.000
18.68000 703.000
18.72000 742.000
18.76000 696.000
18.80000 715.000
18.84000 680.000
18.88000 752.000
18.92000 828.000
18.96000 847.000
19.00000 862.000
19.04000 900.000
19.08000 917.000
19.12000 1019.000
19.16000 948.000
19.20000 864.000
19.24000 818.000
19.28000 766.000
19.32000 707.000
19.36000 711.000
19.40000 739.000
19.44000 723.000
19.48000 712.000
19.52000 709.000
19.56000 711.000
19.60000 729.000
19.64000 715.000
19.68000 670.000
19.72000 718.000
19.76000 703.000
19.80000 770.000
19.84000 749.000
19.88000 749.000
19.92000 712.000
19.96000 741.000
20.00000 734.000
20.04000 706.000
20.08000 798.000
20.12000 727.000
20.16000 733.000
20.20000 706.000
20.24000 785.000
20.28000 738.000
20.32000 716.000
20.36000 773.000
20.40000 753.000
20.44000 764.000
20.48000 757.000
20.52000 744.000
20.56000 758.000
20.60000 841.000
20.64000 775.000
20.68000 823.000
20.72000 803.000
20.76000 796.000
20.80000 781.000
20.84000 815.000
20.88000 776.000
20.92000 803.000
20.96000 847.000
21.00000 736.000
21.04000 817.000
21.08000 823.000
21.12000 809.000
21.16000 853.000
21.20000 832.000
21.24000 801.000
21.28000 807.000
21.32000 834.000
21.36000 764.000
21.40000 838.000
21.44000 859.000
21.48000 881.000
21.52000 910.000
21.56000 826.000
21.60000 819.000
21.64000 870.000
21.68000 904.000
21.72000 862.000
21.76000 970.000
21.80000 972.000
21.84000 1009.000
21.88000 1100.000
21.92000 1211.000
21.96000 1219.000
22.00000 1314.000
22.04000 1422.000
22.08000 1617.000
22.12000 1910.000
22.16000 2023.000
22.20000 1993.000
22.24000 1811.000
22.28000 1704.000
22.32000 1598.000
22.36000 1400.000
22.40000 1212.000
22.44000 1045.000
22.48000 981.000
22.52000 928.000
22.56000 892.000
22.60000 901.000
22.64000 899.000
22.68000 818.000
22.72000 840.000
22.76000 856.000
22.80000 873.000
22.84000 923.000
22.88000 781.000
22.92000 902.000
22.96000 909.000
23.00000 900.000
23.04000 873.000
23.08000 907.000
23.12000 837.000
23.16000 815.000
23.20000 907.000
23.24000 926.000
23.28000 886.000
23.32000 944.000
23.36000 892.000
23.40000 863.000
23.44000 885.000
23.48000 853.000
23.52000 880.000
23.56000 911.000
23.60000 861.000
23.64000 858.000
23.68000 839.000
23.72000 903.000
23.76000 902.000
23.80000 877.000
23.84000 891.000
23.88000 912.000
23.92000 920.000
23.96000 931.000
24.00000 930.000
24.04000 957.000
24.08000 970.000
24.12000 993.000
24.16000 863.000
24.20000 960.000
24.24000 865.000
24.28000 976.000
24.32000 901.000
24.36000 989.000
24.40000 981.000
24.44000 1085.000
24.48000 1062.000
24.52000 1060.000
24.56000 974.000
24.60000 916.000
24.64000 941.000
24.68000 904.000
24.72000 959.000
24.76000 880.000
24.80000 950.000
24.84000 917.000
24.88000 922.000
24.92000 912.000
24.96000 934.000
25.00000 919.000
25.04000 937.000
25.08000 888.000
25.12000 914.000
25.16000 970.000
25.20000 904.000
25.24000 985.000
25.28000 1042.000
25.32000 1105.000
25.36000 1169.000
25.40000 1257.000
25.44000 1345.000
25.48000 1409.000
25.52000 1376.000
25.56000 1327.000
25.60000 1284.000
25.64000 1316.000
25.68000 1266.000
25.72000 1187.000
25.76000 1100.000
25.80000 1103.000
25.84000 1150.000
25.88000 1286.000
25.92000 1365.000
25.96000 1443.000
26.00000 1453.000
26.04000 1337.000
26.08000 1345.000
26.12000 1193.000
26.16000 1215.000
26.20000 1206.000
26.24000 1213.000
26.28000 1273.000
26.32000 1245.000
26.36000 1217.000
26.40000 1294.000
26.44000 1298.000
26.48000 1334.000
26.52000 1383.000
26.56000 1459.000
26.60000 1489.000
26.64000 1644.000
26.68000 1729.000
26.72000 1964.000
26.76000 2367.000
26.80000 3031.000
26.84000 3978.000
26.88000 5434.000
26.92000 8016.000
26.96000 11948.000
27.00000 19317.000
27.04000 32135.000
27.08000 52874.000
27.12000 76127.000
27.16000 85242.000
27.20000 73030.000
27.24000 51054.000
27.28000 31354.000
27.32000 18482.000
27.36000 11725.000
27.40000 8167.000
27.44000 5574.000
27.48000 3837.000
27.52000 2820.000
27.56000 2277.000
27.60000 1811.000
27.64000 1707.000
27.68000 1370.000
27.72000 1389.000
27.76000 1260.000
27.80000 1244.000
27.84000 1156.000
27.88000 1154.000
27.92000 1073.000
27.96000 1057.000
28.00000 1047.000
28.04000 1007.000
28.08000 1011.000
28.12000 1003.000
28.16000 993.000
28.20000 983.000
28.24000 1009.000
28.28000 1021.000
28.32000 983.000
28.36000 935.000
28.40000 967.000
28.44000 943.000
28.48000 964.000
28.52000 932.000
28.56000 904.000
28.60000 905.000
28.64000 907.000
28.68000 948.000
28.72000 907.000
28.76000 925.000
28.80000 910.000
28.84000 930.000
28.88000 919.000
28.92000 921.000
28.96000 838.000
29.00000 807.000
29.04000 794.000
29.08000 833.000
29.12000 800.000
29.16000 822.000
29.20000 855.000
29.24000 827.000
29.28000 814.000
29.32000 820.000
29.36000 809.000
29.40000 832.000
29.44000 811.000
29.48000 842.000
29.52000 837.000
29.56000 855.000
29.60000 792.000
29.64000 750.000
29.68000 867.000
29.72000 789.000
29.76000 846.000
29.80000 785.000
29.84000 811.000
29.88000 812.000
29.92000 852.000
29.96000 897.000
30.00000 843.000
30.04000 866.000
30.08000 902.000
30.12000 930.000
30.16000 862.000
30.20000 875.000
30.24000 811.000
30.28000 756.000
30.32000 790.000
30.36000 754.000
30.40000 786.000
30.44000 788.000
30.48000 750.000
30.52000 779.000
30.56000 824.000
30.60000 808.000
30.64000 805.000
30.68000 772.000
30.72000 771.000
30.76000 746.000
30.80000 781.000
30.84000 718.000
30.88000 760.000
30.92000 743.000
30.96000 696.000
31.00000 789.000
31.04000 811.000
31.08000 791.000
31.12000 783.000
31.16000 747.000
31.20000 768.000
31.24000 765.000
31.28000 831.000
31.32000 797.000
31.36000 843.000
31.40000 869.000
31.44000 944.000
31.48000 1024.000
31.52000 1160.000
31.56000 1365.000
31.60000 1592.000
31.64000 1750.000
31.68000 1752.000
31.72000 1599.000
31.76000 1478.000
31.80000 1377.000
31.84000 1412.000
31.88000 1514.000
31.92000 1771.000
31.96000 1951.000
32.00000 1917.000
32.04000 2057.000
32.08000 2005.000
32.12000 1956.000
32.16000 1832.000
32.20000 1778.000
32.24000 1611.000
32.28000 1487.000
32.32000 1270.000
32.36000 995.000
32.40000 929.000
32.44000 857.000
32.48000 827.000
32.52000 807.000
32.56000 737.000
32.60000 707.000
32.64000 728.000
32.68000 701.000
32.72000 674.000
32.76000 685.000
32.80000 689.000
32.84000 654.000
32.88000 656.000
32.92000 665.000
32.96000 647.000
33.00000 680.000
33.04000 721.000
33.08000 703.000
33.12000 720.000
33.16000 675.000
33.20000 741.000
33.24000 695.000
33.28000 695.000
33.32000 638.000
33.36000 653.000
33.40000 581.000
33.44000 651.000
33.48000 609.000
33.52000 611.000
33.56000 599.000
33.60000 613.000
33.64000 608.000
33.68000 611.000
33.72000 641.000
33.76000 612.000
33.80000 649.000
33.84000 634.000
33.88000 624.000
33.92000 591.000
33.96000 604.000
34.00000 566.000
34.04000 627.000
34.08000 597.000
34.12000 655.000
34.16000 541.000
34.20000 608.000
34.24000 587.000
34.28000 610.000
34.32000 663.000
34.36000 588.000
34.40000 597.000
34.44000 588.000
34.48000 648.000
34.52000 550.000
34.56000 595.000
34.60000 590.000
34.64000 545.000
34.68000 563.000
34.72000 536.000
34.76000 561.000
34.80000 581.000
34.84000 628.000
34.88000 553.000
34.92000 554.000
34.96000 550.000
35.00000 552.000
35.04000 565.000
35.08000 509.000
35.12000 502.000
35.16000 577.000
35.20000 519.000
35.24000 567.000
35.28000 553.000
35.32000 527.000
35.36000 539.000
35.40000 551.000
35.44000 560.000
35.48000 536.000
35.52000 606.000
35.56000 610.000
35.60000 615.000
35.64000 541.000
35.68000 568.000
35.72000 533.000
35.76000 481.000
35.80000 484.000
35.84000 522.000
35.88000 518.000
35.92000 520.000
35.96000 545.000
36.00000 538.000
36.04000 577.000
36.08000 610.000
36.12000 597.000
36.16000 639.000
36.20000 566.000
36.24000 517.000
36.28000 558.000
36.32000 489.000
36.36000 485.000
36.40000 554.000
36.44000 533.000
36.48000 569.000
36.52000 528.000
36.56000 505.000
36.60000 515.000
36.64000 495.000
36.68000 445.000
36.72000 444.000
36.76000 437.000
36.80000 500.000
36.84000 464.000
36.88000 451.000
36.92000 450.000
36.96000 441.000
37.00000 469.000
37.04000 449.000
37.08000 456.000
37.12000 454.000
37.16000 468.000
37.20000 439.000
37.24000 458.000
37.28000 444.000
37.32000 437.000
37.36000 447.000
37.40000 430.000
37.44000 448.000
37.48000 436.000
37.52000 446.000
37.56000 457.000
37.60000 460.000
37.64000 451.000
37.68000 457.000
37.72000 459.000
37.76000 454.000
37.80000 462.000
37.84000 451.000
37.88000 479.000
37.92000 467.000
37.96000 428.000
38.00000 437.000
38.04000 424.000
38.08000 402.000
38.12000 434.000
38.16000 455.000
38.20000 443.000
38.24000 461.000
38.28000 498.000
38.32000 488.000
38.36000 489.000
38.40000 521.000
38.44000 574.000
38.48000 592.000
38.52000 668.000
38.56000 672.000
38.60000 700.000
38.64000 797.000
38.68000 838.000
38.72000 858.000
38.76000 915.000
38.80000 922.000
38.84000 849.000
38.88000 934.000
38.92000 839.000
38.96000 715.000
39.00000 637.000
39.04000 669.000
39.08000 602.000
39.12000 563.000
39.16000 540.000
39.20000 484.000
39.24000 493.000
39.28000 455.000
39.32000 424.000
39.36000 458.000
39.40000 413.000
39.44000 442.000
39.48000 408.000
39.52000 426.000
39.56000 385.000
39.60000 416.000
39.64000 461.000
39.68000 424.000
39.72000 444.000
39.76000 420.000
39.80000 407.000
39.84000 394.000
39.88000 388.000
39.92000 413.000
39.96000 425.000
40.00000 435.000
40.04000 449.000
40.08000 427.000
40.12000 395.000
40.16000 413.000
40.20000 429.000
40.24000 436.000
40.28000 389.000
40.32000 398.000
40.36000 422.000
40.40000 417.000
40.44000 407.000
40.48000 398.000
40.52000 434.000
40.56000 399.000
40.60000 412.000
40.64000 389.000
40.68000 408.000
40.72000 415.000
40.76000 435.000
40.80000 416.000
40.84000 445.000
40.88000 403.000
40.92000 438.000
40.96000 395.000
41.00000 395.000
41.04000 389.000
41.08000 423.000
41.12000 401.000
41.16000 439.000
41.20000 407.000
41.24000 389.000
41.28000 396.000
41.32000 432.000
41.36000 415.000
41.40000 413.000
41.44000 409.000
41.48000 389.000
41.52000 399.000
41.56000 414.000
41.60000 405.000
41.64000 426.000
41.68000 399.000
41.72000 376.000
41.76000 412.000
41.80000 400.000
41.84000 375.000
41.88000 418.000
41.92000 398.000
41.96000 403.000
42.00000 447.000
42.04000 438.000
42.08000 416.000
42.12000 388.000
42.16000 441.000
42.20000 428.000
42.24000 423.000
42.28000 389.000
42.32000 398.000
42.36000 418.000
42.40000 408.000
42.44000 427.000
42.48000 367.000
42.52000 398.000
42.56000 411.000
42.60000 422.000
42.64000 380.000
42.68000 384.000
42.72000 411.000
42.76000 396.000
42.80000 382.000
42.84000 415.000
42.88000 420.000
42.92000 393.000
42.96000 407.000
43.00000 398.000
43.04000 398.000
43.08000 399.000
43.12000 446.000
43.16000 402.000
43.20000 429.000
43.24000 418.000
43.28000 431.000
43.32000 469.000
43.36000 447.000
43.40000 478.000
43.44000 465.000
43.48000 455.000
43.52000 466.000
43.56000 458.000
43.60000 414.000
43.64000 405.000
43.68000 395.000
43.72000 402.000
43.76000 398.000
43.80000 414.000
43.84000 411.000
43.88000 473.000
43.92000 442.000
43.96000 442.000
44.00000 441.000
44.04000 445.000
44.08000 431.000
44.12000 460.000
44.16000 441.000
44.20000 397.000
44.24000 457.000
44.28000 428.000
44.32000 440.000
44.36000 447.000
44.40000 480.000
44.44000 471.000
44.48000 453.000
44.52000 467.000
44.56000 407.000
44.60000 496.000
44.64000 464.000
44.68000 514.000
44.72000 513.000
44.76000 506.000
44.80000 476.000
44.84000 496.000
44.88000 483.000
44.92000 469.000
44.96000 517.000
45.00000 520.000
45.04000 535.000
45.08000 575.000
45.12000 707.000
45.16000 797.000
45.20000 907.000
45.24000 919.000
45.28000 852.000
45.32000 801.000
45.36000 772.000
45.40000 683.000
45.44000 704.000
45.48000 717.000
45.52000 733.000
45.56000 797.000
45.60000 716.000
45.64000 659.000
45.68000 648.000
45.72000 649.000
45.76000 723.000
45.80000 806.000
45.84000 970.000
45.88000 1275.000
45.92000 1796.000
45.96000 2592.000
46.00000 3703.000
46.04000 4305.000
46.08000 4391.000
46.12000 3867.000
46.16000 3270.000
46.20000 2685.000
46.24000 2001.000
46.28000 1308.000
46.32000 957.000
46.36000 726.000
46.40000 645.000
46.44000 564.000
46.48000 512.000
46.52000 488.000
46.56000 498.000
46.60000 410.000
46.64000 449.000
46.68000 449.000
46.72000 432.000
46.76000 421.000
46.80000 413.000
46.84000 389.000
46.88000 413.000
46.92000 387.000
46.96000 393.000
47.00000 395.000
47.04000 374.000
47.08000 434.000
47.12000 347.000
47.16000 401.000
47.20000 403.000
47.24000 419.000
47.28000 394.000
47.32000 356.000
47.36000 357.000
47.40000 395.000
47.44000 387.000
47.48000 398.000
47.52000 403.000
47.56000 405.000
47.60000 404.000
47.64000 370.000
47.68000 384.000
47.72000 395.000
47.76000 383.000
47.80000 368.000
47.84000 379.000
47.88000 368.000
47.92000 377.000
47.96000 384.000
48.00000 395.000
48.04000 387.000
48.08000 376.000
48.12000 364.000
48.16000 373.000
48.20000 373.000
48.24000 388.000
48.28000 372.000
48.32000 358.000
48.36000 371.000
48.40000 377.000
48.44000 365.000
48.48000 379.000
48.52000 333.000
48.56000 360.000
48.60000 346.000
48.64000 376.000
48.68000 334.000
48.72000 342.000
48.76000 357.000
48.80000 368.000
48.84000 376.000
48.88000 387.000
48.92000 323.000
48.96000 361.000
49.00000 340.000
49.04000 332.000
49.08000 360.000
49.12000 382.000
49.16000 391.000
49.20000 317.000
49.24000 348.000
49.28000 350.000
49.32000 382.000
49.36000 389.000
49.40000 396.000
49.44000 385.000
49.48000 343.000
49.52000 355.000
49.56000 366.000
49.60000 378.000
49.64000 373.000
49.68000 368.000
49.72000 368.000
49.76000 357.000
49.80000 345.000
49.84000 357.000
49.88000 367.000
49.92000 339.000
49.96000 392.000
50.00000 359.000
50.04000 378.000
50.08000 377.000
50.12000 423.000
50.16000 384.000
50.20000 349.000
50.24000 383.000
50.28000 353.000
50.32000 386.000
50.36000 361.000
50.40000 368.000
50.44000 378.000
50.48000 365.000
50.52000 339.000
50.56000 347.000
50.60000 363.000
50.64000 339.000
50.68000 360.000
50.72000 329.000
50.76000 349.000
50.80000 371.000
50.84000 355.000
50.88000 386.000
50.92000 390.000
50.96000 401.000
51.00000 373.000
51.04000 358.000
51.08000 397.000
51.12000 381.000
51.16000 381.000
51.20000 385.000
51.24000 369.000
51.28000 385.000
51.32000 376.000
51.36000 373.000
51.40000 363.000
51.44000 340.000
51.48000 365.000
51.52000 358.000
51.56000 351.000
51.60000 376.000
51.64000 370.000
51.68000 403.000
51.72000 361.000
51.76000 373.000
51.80000 390.000
51.84000 367.000
51.88000 376.000
51.92000 343.000
51.96000 391.000
52.00000 388.000
52.04000 372.000
52.08000 378.000
52.12000 362.000
52.16000 390.000
52.20000 409.000
52.24000 398.000
52.28000 414.000
52.32000 384.000
52.36000 399.000
52.40000 391.000
52.44000 390.000
52.48000 406.000
52.52000 402.000
52.56000 413.000
52.60000 382.000
52.64000 397.000
52.68000 380.000
52.72000 357.000
52.76000 407.000
52.80000 393.000
52.84000 373.000
52.88000 372.000
52.92000 381.000
52.96000 380.000
53.00000 346.000
53.04000 366.000
53.08000 377.000
53.12000 381.000
53.16000 358.000
53.20000 418.000
53.24000 390.000
53.28000 443.000
53.32000 417.000
53.36000 433.000
53.40000 446.000
53.44000 471.000
53.48000 468.000
53.52000 433.000
53.56000 447.000
53.60000 381.000
53.64000 379.000
53.68000 425.000
53.72000 394.000
53.76000 406.000
53.80000 439.000
53.84000 412.000
53.88000 404.000
53.92000 426.000
53.96000 405.000
54.00000 420.000
54.04000 398.000
54.08000 401.000
54.12000 402.000
54.16000 431.000
54.20000 373.000
54.24000 436.000
54.28000 361.000
54.32000 421.000
54.36000 434.000
54.40000 407.000
54.44000 403.000
54.48000 435.000
54.52000 464.000
54.56000 418.000
54.60000 404.000
54.64000 474.000
54.68000 463.000
54.72000 420.000
54.76000 427.000
54.80000 444.000
54.84000 450.000
54.88000 425.000
54.92000 451.000
54.96000 464.000
55.00000 466.000
55.04000 448.000
55.08000 446.000
55.12000 472.000
55.16000 459.000
55.20000 501.000
55.24000 506.000
55.28000 480.000
55.32000 485.000
55.36000 498.000
55.40000 532.000
55.44000 543.000
55.48000 600.000
55.52000 663.000
55.56000 696.000
55.60000 794.000
55.64000 922.000
55.68000 1077.000
55.72000 1419.000
55.76000 1791.000
55.80000 2534.000
55.84000 3848.000
55.88000 5710.000
55.92000 8427.000
55.96000 10398.000
56.00000 11121.000
56.04000 10211.000
56.08000 9147.000
56.12000 8064.000
56.16000 6707.000
56.20000 4870.000
56.24000 3337.000
56.28000 2360.000
56.32000 1719.000
56.36000 1301.000
56.40000 1139.000
56.44000 1030.000
56.48000 976.000
56.52000 1004.000
56.56000 886.000
56.60000 748.000
56.64000 762.000
56.68000 668.000
56.72000 632.000
56.76000 623.000
56.80000 476.000
56.84000 552.000
56.88000 473.000
56.92000 471.000
56.96000 432.000
57.00000 437.000
57.04000 441.000
57.08000 439.000
57.12000 473.000
57.16000 432.000
57.20000 407.000
57.24000 476.000
57.28000 430.000
57.32000 402.000
57.36000 389.000
57.40000 441.000
57.44000 418.000
57.48000 404.000
57.52000 456.000
57.56000 466.000
57.60000 412.000
57.64000 457.000
57.68000 495.000
57.72000 460.000
57.76000 430.000
57.80000 404.000
57.84000 457.000
57.88000 421.000
57.92000 418.000
57.96000 408.000
58.00000 418.000
58.04000 384.000
58.08000 372.000
58.12000 394.000
58.16000 352.000
58.20000 376.000
58.24000 372.000
58.28000 352.000
58.32000 381.000
58.36000 391.000
58.40000 361.000
58.44000 370.000
58.48000 372.000
58.52000 363.000
58.56000 379.000
58.60000 375.000
58.64000 395.000
58.68000 373.000
58.72000 372.000
58.76000 357.000
58.80000 355.000
58.84000 356.000
58.88000 401.000
58.92000 386.000
58.96000 384.000
59.00000 381.000
59.04000 387.000
59.08000 360.000
59.12000 366.000
59.16000 385.000
59.20000 384.000
59.24000 344.000
59.28000 391.000
59.32000 361.000
59.36000 414.000
59.40000 372.000
59.44000 363.000
59.48000 359.000
59.52000 383.000
59.56000 373.000
59.60000 377.000
59.64000 382.000
59.68000 394.000
59.72000 359.000
59.76000 362.000
59.80000 382.000
59.84000 369.000
59.88000 388.000
59.92000 371.000
