5.00000 4161.000
5.04000 3992.000
5.08000 4022.000
5.12000 3873.000
5.16000 3781.000
5.20000 3886.000
5.24000 3702.000
5.28000 3617.000
5.32000 3628.000
5.36000 3544.000
5.40000 3410.000
5.44000 3300.000
5.48000 3392.000
5.52000 3342.000
5.56000 3350.000
5.60000 3340.000
5.64000 3113.000
5.68000 3143.000
5.72000 3004.000
5.76000 2902.000
5.80000 3025.000
5.84000 2979.000
5.88000 2855.000
5.92000 2840.000
5.96000 2755.000
6.00000 2821.000
6.04000 2739.000
6.08000 2738.000
6.12000 2563.000
6.16000 2639.000
6.20000 2476.000
6.24000 2472.000
6.28000 2475.000
6.32000 2459.000
6.36000 2415.000
6.40000 2369.000
6.44000 2322.000
6.48000 2168.000
6.52000 2276.000
6.56000 2183.000
6.60000 2158.000
6.64000 2134.000
6.68000 2048.000
6.72000 2004.000
6.76000 2108.000
6.80000 1933.000
6.84000 1898.000
6.88000 1873.000
6.92000 1881.000
6.96000 1862.000
7.00000 1771.000
7.04000 1751.000
7.08000 1776.000
7.12000 1681.000
7.16000 1659.000
7.20000 1646.000
7.24000 1686.000
7.28000 1634.000
7.32000 1575.000
7.36000 1572.000
7.40000 1504.000
7.44000 1602.000
7.48000 1477.000
7.52000 1490.000
7.56000 1486.000
7.60000 1402.000
7.64000 1421.000
7.68000 1351.000
7.72000 1387.000
7.76000 1342.000
7.80000 1350.000
7.84000 1262.000
7.88000 1386.000
7.92000 1345.000
7.96000 1276.000
8.00000 1228.000
8.04000 1276.000
8.08000 1251.000
8.12000 1282.000
8.16000 1292.000
8.20000 1192.000
8.24000 1230.000
8.28000 1190.000
8.32000 1252.000
8.36000 1194.000
8.40000 1194.000
8.44000 1150.000
8.48000 1238.000
8.52000 1185.000
8.56000 1210.000
8.60000 1171.000
8.64000 1212.000
8.68000 1220.000
8.72000 1235.000
8.76000 1191.000
8.80000 1181.000
8.84000 1304.000
8.88000 1221.000
8.92000 1259.000
8.96000 1238.000
9.00000 1206.000
9.04000 1240.000
9.08000 1174.000
9.12000 1198.000
9.16000 1067.000
9.20000 1110.000
9.24000 1040.000
9.28000 1063.000
9.32000 1119.000
9.36000 1065.000
9.40000 974.000
9.44000 1058.000
9.48000 1062.000
9.52000 1024.000
9.56000 1063.000
9.60000 989.000
9.64000 1004.000
9.68000 1015.000
9.72000 1073.000
9.76000 961.000
9.80000 1000.000
9.84000 951.000
9.88000 971.000
9.92000 1038.000
9.96000 1010.000
10.00000 993.000
10.04000 950.000
10.08000 933.000
10.12000 962.000
10.16000 972.000
10.20000 921.000
10.24000 992.000
10.28000 970.000
10.32000 991.000
10.36000 893.000
10.40000 956.000
10.44000 955.000
10.48000 884.000
10.52000 988.000
10.56000 978.000
10.60000 917.000
10.64000 927.000
10.68000 920.000
10.72000 966.000
10.76000 979.000
10.80000 1080.000
10.84000 1248.000
10.88000 1599.000
10.92000 1974.000
10.96000 1793.000
11.00000 1338.000
11.04000 1196.000
11.08000 1024.000
11.12000 929.000
11.16000 896.000
11.20000 871.000
11.24000 899.000
11.28000 830.000
11.32000 913.000
11.36000 840.000
11.40000 860.000
11.44000 904.000
11.48000 879.000
11.52000 905.000
11.56000 873.000
11.60000 873.000
11.64000 840.000
11.68000 879.000
11.72000 909.000
11.76000 881.000
11.80000 865.000
11.84000 789.000
11.88000 826.000
11.92000 877.000
11.96000 893.000
12.00000 853.000
12.04000 863.000
12.08000 895.000
12.12000 890.000
12.16000 825.000
12.20000 928.000
12.24000 896.000
12.28000 897.000
12.32000 911.000
12.36000 885.000
12.40000 833.000
12.44000 906.000
12.48000 913.000
12.52000 934.000
12.56000 973.000
12.60000 960.000
12.64000 981.000
12.68000 1025.000
12.72000 1061.000
12.76000 1048.000
12.80000 1082.000
12.84000 1022.000
12.88000 996.000
12.92000 950.000
12.96000 941.000
13.00000 880.000
13.04000 904.000
13.08000 846.000
13.12000 855.000
13.16000 881.000
13.20000 866.000
13.24000 841.000
13.28000 813.000
13.32000 860.000
13.36000 901.000
13.40000 840.000
13.44000 813.000
13.48000 869.000
13.52000 802.000
13.56000 857.000
13.60000 840.000
13.64000 851.000
13.68000 825.000
13.72000 850.000
13.76000 874.000
13.80000 863.000
13.84000 838.000
13.88000 849.000
13.92000 859.000
13.96000 889.000
14.00000 860.000
14.04000 809.000
14.08000 836.000
14.12000 901.000
14.16000 807.000
14.20000 848.000
14.24000 872.000
14.28000 869.000
14.32000 903.000
14.36000 888.000
14.40000 834.000
14.44000 884.000
14.48000 863.000
14.52000 875.000
14.56000 831.000
14.60000 924.000
14.64000 915.000
14.68000 876.000
14.72000 906.000
14.76000 850.000
14.80000 875.000
14.84000 897.000
14.88000 914.000
14.92000 883.000
14.96000 950.000
15.00000 909.000
15.04000 891.000
15.08000 919.000
15.12000 974.000
15.16000 923.000
15.20000 994.000
15.24000 1051.000
15.28000 957.000
15.32000 1035.000
15.36000 1115.000
15.40000 1107.000
15.44000 1096.000
15.48000 1181.000
15.52000 1168.000
15.56000 1288.000
15.60000 1218.000
15.64000 1307.000
15.68000 1279.000
15.72000 1238.000
15.76000 1151.000
15.80000 1072.000
15.84000 1046.000
15.88000 1051.000
15.92000 1042.000
15.96000 969.000
16.00000 1064.000
16.04000 1012.000
16.08000 1017.000
16.12000 977.000
16.16000 923.000
16.20000 957.000
16.24000 975.000
16.28000 1012.000
16.32000 919.000
16.36000 948.000
16.40000 935.000
16.44000 992.000
16.48000 891.000
16.52000 982.000
16.56000 875.000
16.60000 931.000
16.64000 956.000
16.68000 1036.000
16.72000 980.000
16.76000 1016.000
16.80000 972.000
16.84000 1001.000
16.88000 978.000
16.92000 989.000
16.96000 967.000
17.00000 1007.000
17.04000 923.000
17.08000 1031.000
17.12000 979.000
17.16000 1032.000
17.20000 1019.000
17.24000 996.000
17.28000 1027.000
17.32000 970.000
17.36000 1058.000
17.40000 1061.000
17.44000 1064.000
17.48000 1049.000
17.52000 1077.000
17.56000 1098.000
17.60000 1004.000
17.64000 1065.000
17.68000 1101.000
17.72000 1066.000
17.76000 1120.000
17.80000 1151.000
17.84000 1153.000
17.88000 1205.000
17.92000 1207.000
17.96000 1231.000
18.00000 1317.000
18.04000 1166.000
18.08000 1221.000
18.12000 1234.000
18.16000 1071.000
18.20000 1180.000
18.24000 1138.000
18.28000 1143.000
18.32000 1190.000
18.36000 1176.000
18.40000 1103.000
18.44000 1137.000
18.48000 1156.000
18.52000 1177.000
18.56000 1190.000
18.60000 1191.000
18.64000 1191.000
18.68000 1132.000
18.72000 1242.000
18.76000 1161.000
18.80000 1229.000
18.84000 1193.000
18.88000 1269.000
18.92000 1222.000
18.96000 1226.000
19.00000 1127.000
19.04000 1209.000
19.08000 1254.000
19.12000 1167.000
19.16000 1226.000
19.20000 1204.000
19.24000 1191.000
19.28000 1266.000
19.32000 1255.000
19.36000 1303.000
19.40000 1269.000
19.44000 1259.000
19.48000 1306.000
19.52000 1258.000
19.56000 1334.000
19.60000 1289.000
19.64000 1257.000
19.68000 1299.000
19.72000 1292.000
19.76000 1355.000
19.80000 1310.000
19.84000 1398.000
19.88000 1362.000
19.92000 1319.000
19.96000 1308.000
20.00000 1324.000
20.04000 1319.000
20.08000 1312.000
20.12000 1348.000
20.16000 1364.000
20.20000 1357.000
20.24000 1338.000
20.28000 1413.000
20.32000 1394.000
20.36000 1408.000
20.40000 1334.000
20.44000 1400.000
20.48000 1366.000
20.52000 1407.000
20.56000 1394.000
20.60000 1439.000
20.64000 1340.000
20.68000 1452.000
20.72000 1360.000
20.76000 1469.000
20.80000 1420.000
20.84000 1521.000
20.88000 1447.000
20.92000 1484.000
20.96000 1444.000
21.00000 1510.000
21.04000 1426.000
21.08000 1492.000
21.12000 1439.000
21.16000 1476.000
21.20000 1517.000
21.24000 1488.000
21.28000 1594.000
21.32000 1490.000
21.36000 1594.000
21.40000 1514.000
21.44000 1451.000
21.48000 1595.000
21.52000 1577.000
21.56000 1542.000
21.60000 1489.000
21.64000 1616.000
21.68000 1610.000
21.72000 1595.000
21.76000 1712.000
21.80000 1678.000
21.84000 1770.000
21.88000 1885.000
21.92000 2000.000
21.96000 2128.000
22.00000 2086.000
22.04000 1964.000
22.08000 2080.000
22.12000 2147.000
22.16000 2124.000
22.20000 2159.000
22.24000 2172.000
22.28000 2065.000
22.32000 2005.000
22.36000 1862.000
22.40000 1844.000
22.44000 1885.000
22.48000 1848.000
22.52000 1710.000
22.56000 1804.000
22.60000 1726.000
22.64000 1663.000
22.68000 1634.000
22.72000 1628.000
22.76000 1668.000
22.80000 1671.000
22.84000 1547.000
22.88000 1725.000
22.92000 1621.000
22.96000 1675.000
23.00000 1648.000
23.04000 1623.000
23.08000 1629.000
23.12000 1617.000
23.16000 1617.000
23.20000 1625.000
23.24000 1655.000
23.28000 1651.000
23.32000 1612.000
23.36000 1610.000
23.40000 1689.000
23.44000 1675.000
23.48000 1606.000
23.52000 1652.000
23.56000 1613.000
23.60000 1692.000
23.64000 1618.000
23.68000 1603.000
23.72000 1633.000
23.76000 1676.000
23.80000 1625.000
23.84000 1622.000
23.88000 1676.000
23.92000 1691.000
23.96000 1579.000
24.00000 1706.000
24.04000 1681.000
24.08000 1693.000
24.12000 1634.000
24.16000 1753.000
24.20000 1655.000
24.24000 1700.000
24.28000 1623.000
24.32000 1582.000
24.36000 1586.000
24.40000 1656.000
24.44000 1639.000
24.48000 1617.000
24.52000 1581.000
24.56000 1587.000
24.60000 1572.000
24.64000 1649.000
24.68000 1605.000
24.72000 1650.000
24.76000 1588.000
24.80000 1602.000
24.84000 1652.000
24.88000 1614.000
24.92000 1630.000
24.96000 1634.000
25.00000 1595.000
25.04000 1602.000
25.08000 1634.000
25.12000 1592.000
25.16000 1578.000
25.20000 1593.000
25.24000 1609.000
25.28000 1563.000
25.32000 1603.000
25.36000 1583.000
25.40000 1599.000
25.44000 1605.000
25.48000 1556.000
25.52000 1586.000
25.56000 1614.000
25.60000 1571.000
25.64000 1586.000
25.68000 1619.000
25.72000 1612.000
25.76000 1615.000
25.80000 1586.000
25.84000 1532.000
25.88000 1595.000
25.92000 1606.000
25.96000 1535.000
26.00000 1633.000
26.04000 1653.000
26.08000 1580.000
26.12000 1610.000
26.16000 1582.000
26.20000 1541.000
26.24000 1547.000
26.28000 1587.000
26.32000 1579.000
26.36000 1542.000
26.40000 1572.000
26.44000 1586.000
26.48000 1610.000
26.52000 1548.000
26.56000 1525.000
26.60000 1543.000
26.64000 1561.000
26.68000 1457.000
26.72000 1590.000
26.76000 1590.000
26.80000 1589.000
26.84000 1559.000
26.88000 1623.000
26.92000 1626.000
26.96000 1625.000
27.00000 1669.000
27.04000 1818.000
27.08000 1818.000
27.12000 1820.000
27.16000 1892.000
27.20000 1818.000
27.24000 1869.000
27.28000 1900.000
27.32000 1814.000
27.36000 1784.000
27.40000 1740.000
27.44000 1802.000
27.48000 1710.000
27.52000 1616.000
27.56000 1600.000
27.60000 1619.000
27.64000 1492.000
27.68000 1498.000
27.72000 1597.000
27.76000 1530.000
27.80000 1444.000
27.84000 1510.000
27.88000 1455.000
27.92000 1487.000
27.96000 1437.000
28.00000 1523.000
28.04000 1424.000
28.08000 1462.000
28.12000 1443.000
28.16000 1466.000
28.20000 1436.000
28.24000 1535.000
28.28000 1408.000
28.32000 1515.000
28.36000 1397.000
28.40000 1379.000
28.44000 1520.000
28.48000 1452.000
28.52000 1509.000
28.56000 1539.000
28.60000 1490.000
28.64000 1504.000
28.68000 1471.000
28.72000 1473.000
28.76000 1577.000
28.80000 1575.000
28.84000 1591.000
28.88000 1541.000
28.92000 1486.000
28.96000 1499.000
29.00000 1485.000
29.04000 1440.000
29.08000 1457.000
29.12000 1395.000
29.16000 1474.000
29.20000 1397.000
29.24000 1385.000
29.28000 1462.000
29.32000 1421.000
29.36000 1396.000
29.40000 1453.000
29.44000 1362.000
29.48000 1325.000
29.52000 1377.000
29.56000 1349.000
29.60000 1421.000
29.64000 1413.000
29.68000 1378.000
29.72000 1319.000
29.76000 1366.000
29.80000 1373.000
29.84000 1377.000
29.88000 1414.000
29.92000 1424.000
29.96000 1359.000
30.00000 1398.000
30.04000 1371.000
30.08000 1394.000
30.12000 1373.000
30.16000 1427.000
30.20000 1379.000
30.24000 1374.000
30.28000 1292.000
30.32000 1346.000
30.36000 1333.000
30.40000 1365.000
30.44000 1349.000
30.48000 1323.000
30.52000 1323.000
30.56000 1286.000
30.60000 1387.000
30.64000 1287.000
30.68000 1306.000
30.72000 1370.000
30.76000 1332.000
30.80000 1300.000
30.84000 1323.000
30.88000 1317.000
30.92000 1328.000
30.96000 1311.000
31.00000 1311.000
31.04000 1332.000
31.08000 1283.000
31.12000 1267.000
31.16000 1302.000
31.20000 1285.000
31.24000 1317.000
31.28000 1333.000
31.32000 1361.000
31.36000 1433.000
31.40000 1421.000
31.44000 1506.000
31.48000 1536.000
31.52000 1652.000
31.56000 1774.000
31.60000 1865.000
31.64000 1858.000
31.68000 1880.000
31.72000 1827.000
31.76000 1615.000
31.80000 1529.000
31.84000 1565.000
31.88000 1406.000
31.92000 1329.000
31.96000 1366.000
32.00000 1266.000
32.04000 1289.000
32.08000 1232.000
32.12000 1239.000
32.16000 1234.000
32.20000 1206.000
32.24000 1237.000
32.28000 1215.000
32.32000 1196.000
32.36000 1177.000
32.40000 1207.000
32.44000 1185.000
32.48000 1141.000
32.52000 1109.000
32.56000 1194.000
32.60000 1151.000
32.64000 1173.000
32.68000 1126.000
32.72000 1162.000
32.76000 1180.000
32.80000 1085.000
32.84000 1086.000
32.88000 1124.000
32.92000 1142.000
32.96000 1147.000
33.00000 1051.000
33.04000 1104.000
33.08000 1211.000
33.12000 1238.000
33.16000 1170.000
33.20000 1226.000
33.24000 1178.000
33.28000 1180.000
33.32000 1081.000
33.36000 1075.000
33.40000 1082.000
33.44000 1136.000
33.48000 1093.000
33.52000 1088.000
33.56000 1059.000
33.60000 1037.000
33.64000 1022.000
33.68000 998.000
33.72000 1003.000
33.76000 1104.000
33.80000 986.000
33.84000 1012.000
33.88000 1008.000
33.92000 1006.000
33.96000 1054.000
34.00000 932.000
34.04000 972.000
34.08000 1068.000
34.12000 1027.000
34.16000 964.000
34.20000 986.000
34.24000 1000.000
34.28000 971.000
34.32000 997.000
34.36000 990.000
34.40000 932.000
34.44000 964.000
34.48000 1027.000
34.52000 1000.000
34.56000 939.000
34.60000 973.000
34.64000 973.000
34.68000 953.000
34.72000 893.000
34.76000 868.000
34.80000 924.000
34.84000 949.000
34.88000 907.000
34.92000 944.000
34.96000 916.000
35.00000 955.000
35.04000 932.000
35.08000 894.000
35.12000 901.000
35.16000 938.000
35.20000 930.000
35.24000 883.000
35.28000 982.000
35.32000 910.000
35.36000 933.000
35.40000 924.000
35.44000 859.000
35.48000 901.000
35.52000 1015.000
35.56000 916.000
35.60000 975.000
35.64000 913.000
35.68000 917.000
35.72000 865.000
35.76000 911.000
35.80000 850.000
35.84000 886.000
35.88000 823.000
35.92000 850.000
35.96000 793.000
36.00000 801.000
36.04000 842.000
36.08000 813.000
36.12000 814.000
36.16000 782.000
36.20000 827.000
36.24000 803.000
36.28000 822.000
36.32000 818.000
36.36000 808.000
36.40000 780.000
36.44000 765.000
36.48000 737.000
36.52000 828.000
36.56000 777.000
36.60000 791.000
36.64000 768.000
36.68000 797.000
36.72000 792.000
36.76000 777.000
36.80000 764.000
36.84000 816.000
36.88000 783.000
36.92000 834.000
36.96000 738.000
37.00000 772.000
37.04000 773.000
37.08000 810.000
37.12000 729.000
37.16000 729.000
37.20000 726.000
37.24000 772.000
37.28000 733.000
37.32000 743.000
37.36000 692.000
37.40000 788.000
37.44000 740.000
37.48000 729.000
37.52000 756.000
37.56000 767.000
37.60000 733.000
37.64000 769.000
37.68000 795.000
37.72000 774.000
37.76000 744.000
37.80000 737.000
37.84000 746.000
37.88000 754.000
37.92000 695.000
37.96000 750.000
38.00000 717.000
38.04000 704.000
38.08000 701.000
38.12000 694.000
38.16000 729.000
38.20000 716.000
38.24000 686.000
38.28000 742.000
38.32000 678.000
38.36000 694.000
38.40000 633.000
38.44000 700.000
38.48000 695.000
38.52000 704.000
38.56000 737.000
38.60000 682.000
38.64000 686.000
38.68000 763.000
38.72000 772.000
38.76000 724.000
38.80000 766.000
38.84000 774.000
38.88000 793.000
38.92000 776.000
38.96000 829.000
39.00000 810.000
39.04000 780.000
39.08000 842.000
39.12000 779.000
39.16000 739.000
39.20000 783.000
39.24000 743.000
39.28000 793.000
39.32000 745.000
39.36000 702.000
39.40000 743.000
39.44000 768.000
39.48000 679.000
39.52000 701.000
39.56000 686.000
39.60000 661.000
39.64000 671.000
39.68000 661.000
39.72000 659.000
39.76000 670.000
39.80000 707.000
39.84000 681.000
39.88000 667.000
39.92000 726.000
39.96000 680.000
40.00000 641.000
40.04000 666.000
40.08000 642.000
40.12000 736.000
40.16000 695.000
40.20000 692.000
40.24000 692.000
40.28000 681.000
40.32000 670.000
40.36000 640.000
40.40000 686.000
40.44000 665.000
40.48000 679.000
40.52000 602.000
40.56000 612.000
40.60000 614.000
40.64000 687.000
40.68000 639.000
40.72000 661.000
40.76000 644.000
40.80000 651.000
40.84000 619.000
40.88000 688.000
40.92000 693.000
40.96000 706.000
41.00000 681.000
41.04000 672.000
41.08000 669.000
41.12000 692.000
41.16000 681.000
41.20000 614.000
41.24000 696.000
41.28000 653.000
41.32000 716.000
41.36000 641.000
41.40000 643.000
41.44000 638.000
41.48000 638.000
41.52000 649.000
41.56000 631.000
41.60000 676.000
41.64000 685.000
41.68000 716.000
41.72000 653.000
41.76000 680.000
41.80000 690.000
41.84000 598.000
41.88000 665.000
41.92000 711.000
41.96000 688.000
42.00000 639.000
42.04000 657.000
42.08000 699.000
42.12000 657.000
42.16000 635.000
42.20000 705.000
42.24000 650.000
42.28000 671.000
42.32000 638.000
42.36000 686.000
42.40000 645.000
42.44000 636.000
42.48000 670.000
42.52000 657.000
42.56000 638.000
42.60000 648.000
42.64000 661.000
42.68000 664.000
42.72000 677.000
42.76000 654.000
42.80000 689.000
42.84000 623.000
42.88000 639.000
42.92000 681.000
42.96000 655.000
43.00000 656.000
43.04000 616.000
43.08000 655.000
43.12000 642.000
43.16000 629.000
43.20000 630.000
43.24000 640.000
43.28000 707.000
43.32000 686.000
43.36000 621.000
43.40000 698.000
43.44000 710.000
43.48000 670.000
43.52000 652.000
43.56000 680.000
43.60000 697.000
43.64000 678.000
43.68000 671.000
43.72000 637.000
43.76000 665.000
43.80000 684.000
43.84000 640.000
43.88000 682.000
43.92000 668.000
43.96000 617.000
44.00000 677.000
44.04000 603.000
44.08000 640.000
44.12000 617.000
44.16000 718.000
44.20000 626.000
44.24000 681.000
44.28000 625.000
44.32000 659.000
44.36000 657.000
44.40000 666.000
44.44000 679.000
44.48000 647.000
44.52000 707.000
44.56000 694.000
44.60000 710.000
44.64000 764.000
44.68000 819.000
44.72000 903.000
44.76000 841.000
44.80000 795.000
44.84000 776.000
44.88000 733.000
44.92000 704.000
44.96000 759.000
45.00000 735.000
45.04000 728.000
45.08000 706.000
45.12000 767.000
45.16000 796.000
45.20000 823.000
45.24000 789.000
45.28000 783.000
45.32000 769.000
45.36000 770.000
45.40000 763.000
45.44000 769.000
45.48000 774.000
45.52000 798.000
45.56000 707.000
45.60000 791.000
45.64000 687.000
45.68000 676.000
45.72000 702.000
45.76000 693.000
45.80000 708.000
45.84000 661.000
45.88000 682.000
45.92000 679.000
45.96000 695.000
46.00000 666.000
46.04000 661.000
46.08000 611.000
46.12000 608.000
46.16000 627.000
46.20000 652.000
46.24000 615.000
46.28000 609.000
46.32000 616.000
46.36000 592.000
46.40000 647.000
46.44000 564.000
46.48000 594.000
46.52000 588.000
46.56000 626.000
46.60000 617.000
46.64000 579.000
46.68000 629.000
46.72000 606.000
46.76000 586.000
46.80000 614.000
46.84000 568.000
46.88000 588.000
46.92000 611.000
46.96000 609.000
47.00000 620.000
47.04000 574.000
47.08000 589.000
47.12000 606.000
47.16000 564.000
47.20000 581.000
47.24000 610.000
47.28000 531.000
47.32000 566.000
47.36000 562.000
47.40000 544.000
47.44000 582.000
47.48000 552.000
47.52000 551.000
47.56000 583.000
47.60000 594.000
47.64000 598.000
47.68000 612.000
47.72000 609.000
47.76000 596.000
47.80000 558.000
47.84000 602.000
47.88000 589.000
47.92000 609.000
47.96000 564.000
48.00000 584.000
48.04000 596.000
48.08000 562.000
48.12000 619.000
48.16000 558.000
48.20000 584.000
48.24000 615.000
48.28000 595.000
48.32000 627.000
48.36000 579.000
48.40000 590.000
48.44000 587.000
48.48000 567.000
48.52000 594.000
48.56000 555.000
48.60000 587.000
48.64000 566.000
48.68000 594.000
48.72000 567.000
48.76000 577.000
48.80000 587.000
48.84000 560.000
48.88000 558.000
48.92000 581.000
48.96000 540.000
49.00000 538.000
49.04000 565.000
49.08000 615.000
49.12000 543.000
49.16000 591.000
49.20000 580.000
49.24000 531.000
49.28000 591.000
49.32000 560.000
49.36000 526.000
49.40000 592.000
49.44000 632.000
49.48000 566.000
49.52000 631.000
49.56000 567.000
49.60000 552.000
49.64000 577.000
49.68000 571.000
49.72000 584.000
49.76000 542.000
49.80000 581.000
49.84000 517.000
49.88000 582.000
49.92000 540.000
49.96000 540.000
50.00000 504.000
50.04000 577.000
50.08000 544.000
50.12000 562.000
50.16000 554.000
50.20000 581.000
50.24000 594.000
50.28000 548.000
50.32000 510.000
50.36000 576.000
50.40000 590.000
50.44000 562.000
50.48000 565.000
50.52000 529.000
50.56000 555.000
50.60000 557.000
50.64000 588.000
50.68000 571.000
50.72000 525.000
50.76000 588.000
50.80000 574.000
50.84000 597.000
50.88000 587.000
50.92000 585.000
50.96000 571.000
51.00000 572.000
51.04000 553.000
51.08000 544.000
51.12000 542.000
51.16000 563.000
51.20000 591.000
51.24000 552.000
51.28000 556.000
51.32000 569.000
51.36000 556.000
51.40000 568.000
51.44000 528.000
51.48000 513.000
51.52000 535.000
51.56000 529.000
51.60000 541.000
51.64000 552.000
51.68000 570.000
51.72000 560.000
51.76000 567.000
51.80000 551.000
51.84000 575.000
51.88000 546.000
51.92000 583.000
51.96000 558.000
52.00000 578.000
52.04000 533.000
52.08000 524.000
52.12000 551.000
52.16000 533.000
52.20000 530.000
52.24000 556.000
52.28000 540.000
52.32000 557.000
52.36000 517.000
52.40000 535.000
52.44000 543.000
52.48000 542.000
52.52000 518.000
52.56000 528.000
52.60000 531.000
52.64000 552.000
52.68000 555.000
52.72000 563.000
52.76000 523.000
52.80000 554.000
52.84000 571.000
52.88000 586.000
52.92000 512.000
52.96000 578.000
53.00000 522.000
53.04000 549.000
53.08000 535.000
53.12000 553.000
53.16000 568.000
53.20000 570.000
53.24000 545.000
53.28000 541.000
53.32000 545.000
53.36000 575.000
53.40000 589.000
53.44000 522.000
53.48000 615.000
53.52000 567.000
53.56000 534.000
53.60000 529.000
53.64000 608.000
53.68000 599.000
53.72000 576.000
53.76000 623.000
53.80000 557.000
53.84000 561.000
53.88000 548.000
53.92000 587.000
53.96000 526.000
54.00000 572.000
54.04000 530.000
54.08000 614.000
54.12000 550.000
54.16000 568.000
54.20000 538.000
54.24000 566.000
54.28000 571.000
54.32000 513.000
54.36000 541.000
54.40000 532.000
54.44000 537.000
54.48000 526.000
54.52000 513.000
54.56000 576.000
54.60000 576.000
54.64000 554.000
54.68000 539.000
54.72000 552.000
54.76000 590.000
54.80000 530.000
54.84000 524.000
54.88000 498.000
54.92000 520.000
54.96000 549.000
55.00000 542.000
55.04000 505.000
55.08000 507.000
55.12000 512.000
55.16000 551.000
55.20000 534.000
55.24000 535.000
55.28000 564.000
55.32000 543.000
55.36000 580.000
55.40000 520.000
55.44000 529.000
55.48000 512.000
55.52000 534.000
55.56000 542.000
55.60000 541.000
55.64000 560.000
55.68000 573.000
55.72000 544.000
55.76000 557.000
55.80000 565.000
55.84000 581.000
55.88000 577.000
55.92000 545.000
55.96000 525.000
56.00000 561.000
56.04000 581.000
56.08000 580.000
56.12000 559.000
56.16000 605.000
56.20000 570.000
56.24000 581.000
56.28000 566.000
56.32000 532.000
56.36000 571.000
56.40000 577.000
56.44000 570.000
56.48000 564.000
56.52000 554.000
56.56000 608.000
56.60000 544.000
56.64000 522.000
56.68000 577.000
56.72000 593.000
56.76000 510.000
56.80000 532.000
56.84000 559.000
56.88000 539.000
56.92000 493.000
56.96000 563.000
57.00000 522.000
57.04000 533.000
57.08000 528.000
57.12000 542.000
57.16000 521.000
57.20000 546.000
57.24000 551.000
57.28000 527.000
57.32000 585.000
57.36000 549.000
57.40000 554.000
57.44000 511.000
57.48000 553.000
57.52000 532.000
57.56000 518.000
57.60000 558.000
57.64000 539.000
57.68000 543.000
57.72000 617.000
57.76000 557.000
57.80000 563.000
57.84000 566.000
57.88000 541.000
57.92000 563.000
57.96000 546.000
58.00000 532.000
58.04000 556.000
58.08000 500.000
58.12000 525.000
58.16000 524.000
58.20000 558.000
58.24000 544.000
58.28000 536.000
58.32000 565.000
58.36000 502.000
58.40000 526.000
58.44000 552.000
58.48000 537.000
58.52000 547.000
58.56000 541.000
58.60000 525.000
58.64000 492.000
58.68000 531.000
58.72000 554.000
58.76000 561.000
58.80000 544.000
58.84000 520.000
58.88000 568.000
58.92000 562.000
58.96000 562.000
59.00000 529.000
59.04000 530.000
59.08000 500.000
59.12000 538.000
59.16000 549.000
59.20000 553.000
59.24000 507.000
59.28000 557.000
59.32000 555.000
59.36000 514.000
59.40000 514.000
59.44000 541.000
59.48000 547.000
59.52000 541.000
59.56000 558.000
59.60000 535.000
59.64000 586.000
59.68000 514.000
59.72000 539.000
59.76000 556.000
59.80000 561.000
59.84000 495.000
59.88000 510.000
59.92000 550.000
59.96000 473.000
60.00000 539.000
60.04000 496.000
60.08000 560.000
60.12000 539.000
60.16000 524.000
60.20000 527.000
60.24000 573.000
60.28000 551.000
60.32000 555.000
60.36000 531.000
60.40000 517.000
60.44000 517.000
60.48000 553.000
60.52000 538.000
60.56000 564.000
60.60000 515.000
60.64000 549.000
60.68000 553.000
60.72000 552.000
60.76000 502.000
60.80000 525.000
60.84000 549.000
60.88000 511.000
60.92000 549.000
60.96000 594.000
61.00000 542.000
61.04000 566.000
61.08000 544.000
61.12000 556.000
61.16000 526.000
61.20000 554.000
61.24000 563.000
61.28000 580.000
61.32000 533.000
61.36000 536.000
61.40000 542.000
61.44000 530.000
61.48000 555.000
61.52000 554.000
61.56000 542.000
61.60000 562.000
61.64000 566.000
61.68000 555.000
61.72000 570.000
61.76000 501.000
61.80000 564.000
61.84000 530.000
61.88000 531.000
61.92000 520.000
61.96000 547.000
62.00000 503.000
62.04000 533.000
62.08000 541.000
62.12000 525.000
62.16000 565.000
62.20000 545.000
62.24000 502.000
62.28000 533.000
62.32000 505.000
62.36000 563.000
62.40000 536.000
62.44000 583.000
62.48000 505.000
62.52000 527.000
62.56000 566.000
62.60000 547.000
62.64000 550.000
62.68000 536.000
62.72000 572.000
62.76000 553.000
62.80000 534.000
62.84000 534.000
62.88000 528.000
62.92000 532.000
62.96000 505.000
63.00000 540.000
63.04000 529.000
63.08000 541.000
63.12000 563.000
63.16000 501.000
63.20000 549.000
63.24000 548.000
63.28000 497.000
63.32000 508.000
63.36000 504.000
63.40000 532.000
63.44000 551.000
63.48000 522.000
63.52000 517.000
63.56000 523.000
63.60000 533.000
63.64000 545.000
63.68000 513.000
63.72000 536.000
63.76000 521.000
63.80000 540.000
63.84000 493.000
63.88000 504.000
63.92000 524.000
63.96000 497.000
64.00000 516.000
64.04000 524.000
64.08000 520.000
64.12000 515.000
64.16000 491.000
64.20000 527.000
64.24000 488.000
64.28000 501.000
64.32000 480.000
64.36000 555.000
64.40000 502.000
64.44000 487.000
64.48000 548.000
64.52000 487.000
64.56000 517.000
64.60000 495.000
64.64000 549.000
64.68000 481.000
64.72000 459.000
64.76000 536.000
64.80000 493.000
64.84000 494.000
64.88000 494.000
64.92000 528.000
64.96000 514.000
65.00000 548.000
65.04000 529.000
65.08000 498.000
65.12000 504.000
65.16000 538.000
65.20000 542.000
65.24000 474.000
65.28000 474.000
65.32000 530.000
65.36000 522.000
65.40000 551.000
65.44000 477.000
65.48000 516.000
65.52000 505.000
65.56000 452.000
65.60000 508.000
65.64000 533.000
65.68000 475.000
65.72000 512.000
65.76000 543.000
65.80000 545.000
65.84000 477.000
65.88000 513.000
65.92000 498.000
65.96000 526.000
66.00000 464.000
66.04000 514.000
66.08000 500.000
66.12000 545.000
66.16000 511.000
66.20000 542.000
66.24000 520.000
66.28000 523.000
66.32000 523.000
66.36000 534.000
66.40000 528.000
66.44000 476.000
66.48000 466.000
66.52000 445.000
66.56000 525.000
66.60000 527.000
66.64000 486.000
66.68000 481.000
66.72000 507.000
66.76000 481.000
66.80000 556.000
66.84000 481.000
66.88000 505.000
66.92000 510.000
66.96000 491.000
67.00000 453.000
67.04000 530.000
67.08000 476.000
67.12000 468.000
67.16000 496.000
67.20000 461.000
67.24000 498.000
67.28000 507.000
67.32000 480.000
67.36000 518.000
67.40000 487.000
67.44000 489.000
67.48000 497.000
67.52000 514.000
67.56000 448.000
67.60000 473.000
67.64000 502.000
67.68000 488.000
67.72000 427.000
67.76000 482.000
67.80000 499.000
67.84000 491.000
67.88000 444.000
67.92000 469.000
67.96000 464.000
68.00000 487.000
68.04000 456.000
68.08000 463.000
68.12000 463.000
68.16000 472.000
68.20000 475.000
68.24000 446.000
68.28000 508.000
68.32000 504.000
68.36000 477.000
68.40000 473.000
68.44000 482.000
68.48000 488.000
68.52000 481.000
68.56000 486.000
68.60000 460.000
68.64000 495.000
68.68000 486.000
68.72000 484.000
68.76000 464.000
68.80000 459.000
68.84000 479.000
68.88000 477.000
68.92000 495.000
68.96000 445.000
69.00000 450.000
69.04000 469.000
69.08000 433.000
69.12000 459.000
69.16000 439.000
69.20000 466.000
69.24000 434.000
69.28000 436.000
69.32000 486.000
69.36000 512.000
69.40000 489.000
69.44000 520.000
69.48000 456.000
69.52000 500.000
69.56000 542.000
69.60000 534.000
69.64000 458.000
69.68000 479.000
69.72000 479.000
69.76000 520.000
69.80000 506.000
69.84000 480.000
69.88000 495.000
69.92000 453.000
