5.00000 1305.000
5.04000 1327.000
5.08000 1343.000
5.12000 1365.000
5.16000 1292.000
5.20000 1273.000
5.24000 1292.000
5.28000 1297.000
5.32000 1289.000
5.36000 1251.000
5.40000 1201.000
5.44000 1195.000
5.48000 1205.000
5.52000 1217.000
5.56000 1190.000
5.60000 1187.000
5.64000 1172.000
5.68000 1213.000
5.72000 1134.000
5.76000 1123.000
5.80000 1120.000
5.84000 1118.000
5.88000 1158.000
5.92000 1092.000
5.96000 1097.000
6.00000 1108.000
6.04000 1094.000
6.08000 1075.000
6.12000 1134.000
6.16000 1115.000
6.20000 1119.000
6.24000 1114.000
6.28000 1130.000
6.32000 1101.000
6.36000 1044.000
6.40000 1071.000
6.44000 1072.000
6.48000 1018.000
6.52000 1020.000
6.56000 1025.000
6.60000 999.000
6.64000 1048.000
6.68000 1030.000
6.72000 1076.000
6.76000 983.000
6.80000 1047.000
6.84000 904.000
6.88000 992.000
6.92000 1002.000
6.96000 1007.000
7.00000 987.000
7.04000 965.000
7.08000 970.000
7.12000 971.000
7.16000 960.000
7.20000 892.000
7.24000 940.000
7.28000 918.000
7.32000 885.000
7.36000 941.000
7.40000 917.000
7.44000 936.000
7.48000 905.000
7.52000 901.000
7.56000 910.000
7.60000 948.000
7.64000 894.000
7.68000 920.000
7.72000 894.000
7.76000 881.000
7.80000 888.000
7.84000 901.000
7.88000 900.000
7.92000 889.000
7.96000 941.000
8.00000 931.000
8.04000 966.000
8.08000 945.000
8.12000 914.000
8.16000 878.000
8.20000 912.000
8.24000 948.000
8.28000 931.000
8.32000 877.000
8.36000 955.000
8.40000 989.000
8.44000 1057.000
8.48000 1090.000
8.52000 1214.000
8.56000 1306.000
8.60000 1492.000
8.64000 1715.000
8.68000 2003.000
8.72000 2498.000
8.76000 3403.000
8.80000 4748.000
8.84000 7364.000
8.88000 12384.000
8.92000 21753.000
8.96000 32109.000
9.00000 32581.000
9.04000 21563.000
9.08000 11413.000
9.12000 6401.000
9.16000 3815.000
9.20000 2331.000
9.24000 1731.000
9.28000 1354.000
9.32000 1203.000
9.36000 1114.000
9.40000 1026.000
9.44000 939.000
9.48000 896.000
9.52000 858.000
9.56000 822.000
9.60000 846.000
9.64000 799.000
9.68000 717.000
9.72000 762.000
9.76000 756.000
9.80000 765.000
9.84000 787.000
9.88000 760.000
9.92000 761.000
9.96000 817.000
10.00000 769.000
10.04000 813.000
10.08000 738.000
10.12000 785.000
10.16000 737.000
10.20000 774.000
10.24000 767.000
10.28000 765.000
10.32000 789.000
10.36000 786.000
10.40000 772.000
10.44000 759.000
10.48000 754.000
10.52000 798.000
10.56000 740.000
10.60000 754.000
10.64000 846.000
10.68000 856.000
10.72000 849.000
10.76000 875.000
10.80000 1051.000
10.84000 1402.000
10.88000 1877.000
10.92000 2214.000
10.96000 1832.000
11.00000 1278.000
11.04000 1011.000
11.08000 823.000
11.12000 774.000
11.16000 699.000
11.20000 693.000
11.24000 723.000
11.28000 690.000
11.32000 692.000
11.36000 716.000
11.40000 646.000
11.44000 643.000
11.48000 658.000
11.52000 652.000
11.56000 607.000
11.60000 642.000
11.64000 595.000
11.68000 619.000
11.72000 593.000
11.76000 605.000
11.80000 570.000
11.84000 599.000
11.88000 604.000
11.92000 583.000
11.96000 632.000
12.00000 623.000
12.04000 603.000
12.08000 579.000
12.12000 614.000
12.16000 591.000
12.20000 631.000
12.24000 649.000
12.28000 679.000
12.32000 633.000
12.36000 765.000
12.40000 753.000
12.44000 857.000
12.48000 1003.000
12.52000 1094.000
12.56000 1402.000
12.60000 1656.000
12.64000 1783.000
12.68000 1775.000
12.72000 1534.000
12.76000 1310.000
12.80000 1138.000
12.84000 986.000
12.88000 732.000
12.92000 609.000
12.96000 618.000
13.00000 609.000
13.04000 558.000
13.08000 520.000
13.12000 563.000
13.16000 572.000
13.20000 530.000
13.24000 520.000
13.28000 567.000
13.32000 531.000
13.36000 483.000
13.40000 531.000
13.44000 534.000
13.48000 545.000
13.52000 534.000
13.56000 516.000
13.60000 544.000
13.64000 554.000
13.68000 558.000
13.72000 534.000
13.76000 515.000
13.80000 549.000
13.84000 528.000
13.88000 501.000
13.92000 550.000
13.96000 496.000
14.00000 464.000
14.04000 532.000
14.08000 514.000
14.12000 533.000
14.16000 567.000
14.20000 558.000
14.24000 523.000
14.28000 526.000
14.32000 546.000
14.36000 553.000
14.40000 535.000
14.44000 503.000
14.48000 499.000
14.52000 533.000
14.56000 485.000
14.60000 511.000
14.64000 529.000
14.68000 530.000
14.72000 554.000
14.76000 519.000
14.80000 540.000
14.84000 564.000
14.88000 526.000
14.92000 506.000
14.96000 514.000
15.00000 531.000
15.04000 543.000
15.08000 577.000
15.12000 553.000
15.16000 567.000
15.20000 553.000
15.24000 625.000
15.28000 618.000
15.32000 640.000
15.36000 641.000
15.40000 670.000
15.44000 765.000
15.48000 801.000
15.52000 910.000
15.56000 984.000
15.60000 1165.000
15.64000 1300.000
15.68000 1234.000
15.72000 989.000
15.76000 797.000
15.80000 679.000
15.84000 593.000
15.88000 570.000
15.92000 580.000
15.96000 607.000
16.00000 590.000
16.04000 578.000
16.08000 571.000
16.12000 588.000
16.16000 611.000
16.20000 660.000
16.24000 649.000
16.28000 629.000
16.32000 633.000
16.36000 596.000
16.40000 577.000
16.44000 606.000
16.48000 589.000
16.52000 590.000
16.56000 579.000
16.60000 586.000
16.64000 563.000
16.68000 600.000
16.72000 558.000
16.76000 578.000
16.80000 632.000
16.84000 649.000
16.88000 588.000
16.92000 640.000
16.96000 597.000
17.00000 665.000
17.04000 663.000
17.08000 743.000
17.12000 747.000
17.16000 839.000
17.20000 826.000
17.24000 891.000
17.28000 870.000
17.32000 840.000
17.36000 837.000
17.40000 847.000
17.44000 908.000
17.48000 953.000
17.52000 990.000
17.56000 1118.000
17.60000 1345.000
17.64000 1529.000
17.68000 2035.000
17.72000 2620.000
17.76000 3706.000
17.80000 5309.000
17.84000 8021.000
17.88000 12723.000
17.92000 20419.000
17.96000 31306.000
18.00000 38483.000
18.04000 34235.000
18.08000 22276.000
18.12000 12350.000
18.16000 6781.000
18.20000 4060.000
18.24000 2535.000
18.28000 1753.000
18.32000 1257.000
18.36000 1074.000
18.40000 956.000
18.44000 914.000
18.48000 837.000
18.52000 785.000
18.56000 848.000
18.60000 778.000
18.64000 741.000
18.68000 761.000
18.72000 797.000
18.76000 763.000
18.80000 742.000
18.84000 817.000
18.88000 822.000
18.92000 827.000
18.96000 853.000
19.00000 872.000
19.04000 848.000
19.08000 883.000
19.12000 894.000
19.16000 864.000
19.20000 775.000
19.24000 804.000
19.28000 716.000
19.32000 751.000
19.36000 751.000
19.40000 732.000
19.44000 721.000
19.48000 670.000
19.52000 745.000
19.56000 788.000
19.60000 737.000
19.64000 747.000
19.68000 711.000
19.72000 781.000
19.76000 725.000
19.80000 705.000
19.84000 706.000
19.88000 703.000
19.92000 755.000
19.96000 764.000
20.00000 799.000
20.04000 749.000
20.08000 780.000
20.12000 779.000
20.16000 742.000
20.20000 757.000
20.24000 719.000
20.28000 803.000
20.32000 760.000
20.36000 775.000
20.40000 768.000
20.44000 787.000
20.48000 803.000
20.52000 762.000
20.56000 781.000
20.60000 777.000
20.64000 796.000
20.68000 790.000
20.72000 783.000
20.76000 840.000
20.80000 809.000
20.84000 755.000
20.88000 888.000
20.92000 829.000
20.96000 820.000
21.00000 813.000
21.04000 834.000
21.08000 832.000
21.12000 810.000
21.16000 826.000
21.20000 847.000
21.24000 774.000
21.28000 868.000
21.32000 806.000
21.36000 844.000
21.40000 862.000
21.44000 911.000
21.48000 863.000
21.52000 929.000
21.56000 828.000
21.60000 862.000
21.64000 948.000
21.68000 892.000
21.72000 949.000
21.76000 973.000
21.80000 969.000
21.84000 1086.000
21.88000 1279.000
21.92000 1271.000
21.96000 1360.000
22.00000 1319.000
22.04000 1353.000
22.08000 1427.000
22.12000 1601.000
22.16000 1579.000
22.20000 1376.000
22.24000 1398.000
22.28000 1197.000
22.32000 1190.000
22.36000 994.000
22.40000 1013.000
22.44000 960.000
22.48000 930.000
22.52000 878.000
22.56000 878.000
22.60000 871.000
22.64000 866.000
22.68000 879.000
22.72000 814.000
22.76000 925.000
22.80000 864.000
22.84000 904.000
22.88000 892.000
22.92000 917.000
22.96000 885.000
23.00000 921.000
23.04000 920.000
23.08000 901.000
23.12000 904.000
23.16000 844.000
23.20000 906.000
23.24000 877.000
23.28000 882.000
23.32000 892.000
23.36000 863.000
23.40000 930.000
23.44000 854.000
23.48000 826.000
23.52000 886.000
23.56000 892.000
23.60000 874.000
23.64000 901.000
23.68000 892.000
23.72000 831.000
23.76000 849.000
23.80000 865.000
23.84000 880.000
23.88000 847.000
23.92000 884.000
23.96000 921.000
24.00000 907.000
24.04000 930.000
24.08000 922.000
24.12000 997.000
24.16000 911.000
24.20000 954.000
24.24000 947.000
24.28000 939.000
24.32000 1031.000
24.36000 1048.000
24.40000 1060.000
24.44000 1113.000
24.48000 1065.000
24.52000 1017.000
24.56000 984.000
24.60000 952.000
24.64000 939.000
24.68000 977.000
24.72000 905.000
24.76000 910.000
24.80000 911.000
24.84000 900.000
24.88000 950.000
24.92000 913.000
24.96000 966.000
25.00000 908.000
25.04000 914.000
25.08000 962.000
25.12000 962.000
25.16000 953.000
25.20000 987.000
25.24000 1032.000
25.28000 1094.000
25.32000 1097.000
25.36000 1201.000
25.40000 1230.000
25.44000 1343.000
25.48000 1200.000
25.52000 1270.000
25.56000 1275.000
25.60000 1220.000
25.64000 1199.000
25.68000 1178.000
25.72000 1198.000
25.76000 1195.000
25.80000 1165.000
25.84000 1223.000
25.88000 1341.000
25.92000 1433.000
25.96000 1558.000
26.00000 1431.000
26.04000 1378.000
26.08000 1229.000
26.12000 1197.000
26.16000 1214.000
26.20000 1287.000
26.24000 1294.000
26.28000 1281.000
26.32000 1226.000
26.36000 1236.000
26.40000 1275.000
26.44000 1344.000
26.48000 1355.000
26.52000 1439.000
26.56000 1492.000
26.60000 1666.000
26.64000 1854.000
26.68000 1983.000
26.72000 2284.000
26.76000 2783.000
26.80000 3562.000
26.84000 4810.000
26.88000 7002.000
26.92000 10136.000
26.96000 15269.000
27.00000 24003.000
27.04000 38108.000
27.08000 59481.000
27.12000 81462.000
27.16000 87703.000
27.20000 72021.000
27.24000 49694.000
27.28000 31000.000
27.32000 19493.000
27.36000 13582.000
27.40000 9770.000
27.44000 6928.000
27.48000 4725.000
27.52000 3290.000
27.56000 2467.000
27.60000 2028.000
27.64000 1809.000
27.68000 1586.000
27.72000 1513.000
27.76000 1329.000
27.80000 1314.000
27.84000 1119.000
27.88000 1208.000
27.92000 1140.000
27.96000 1112.000
28.00000 1063.000
28.04000 1136.000
28.08000 1095.000
28.12000 1101.000
28.16000 1107.000
28.20000 1119.000
28.24000 1114.000
28.28000 1107.000
28.32000 1078.000
28.36000 1044.000
28.40000 1018.000
28.44000 1010.000
28.48000 960.000
28.52000 923.000
28.56000 920.000
28.60000 866.000
28.64000 879.000
28.68000 877.000
28.72000 920.000
28.76000 955.000
28.80000 935.000
28.84000 933.000
28.88000 920.000
28.92000 915.000
28.96000 934.000
29.00000 805.000
29.04000 853.000
29.08000 856.000
29.12000 870.000
29.16000 834.000
29.20000 832.000
29.24000 826.000
29.28000 847.000
29.32000 788.000
29.36000 822.000
29.40000 832.000
29.44000 831.000
29.48000 809.000
29.52000 812.000
29.56000 802.000
29.60000 824.000
29.64000 820.000
29.68000 848.000
29.72000 806.000
29.76000 818.000
29.80000 839.000
29.84000 821.000
29.88000 878.000
29.92000 901.000
29.96000 904.000
30.00000 930.000
30.04000 851.000
30.08000 855.000
30.12000 888.000
30.16000 819.000
30.20000 881.000
30.24000 798.000
30.28000 830.000
30.32000 798.000
30.36000 786.000
30.40000 784.000
30.44000 729.000
30.48000 766.000
30.52000 765.000
30.56000 771.000
30.60000 800.000
30.64000 787.000
30.68000 780.000
30.72000 757.000
30.76000 766.000
30.80000 811.000
30.84000 763.000
30.88000 767.000
30.92000 731.000
30.96000 740.000
31.00000 800.000
31.04000 759.000
31.08000 804.000
31.12000 754.000
31.16000 772.000
31.20000 762.000
31.24000 785.000
31.28000 778.000
31.32000 841.000
31.36000 898.000
31.40000 936.000
31.44000 1008.000
31.48000 1112.000
31.52000 1309.000
31.56000 1447.000
31.60000 1851.000
31.64000 1983.000
31.68000 1842.000
31.72000 1760.000
31.76000 1612.000
31.80000 1485.000
31.84000 1478.000
31.88000 1646.000
31.92000 1713.000
31.96000 1900.000
32.00000 1886.000
32.04000 1835.000
32.08000 1808.000
32.12000 1779.000
32.16000 1741.000
32.20000 1571.000
32.24000 1475.000
32.28000 1246.000
32.32000 1149.000
32.36000 1012.000
32.40000 927.000
32.44000 825.000
32.48000 817.000
32.52000 728.000
32.56000 708.000
32.60000 713.000
32.64000 712.000
32.68000 660.000
32.72000 710.000
32.76000 678.000
32.80000 712.000
32.84000 683.000
32.88000 649.000
32.92000 687.000
32.96000 708.000
33.00000 722.000
33.04000 754.000
33.08000 716.000
33.12000 786.000
33.16000 743.000
33.20000 800.000
33.24000 758.000
33.28000 689.000
33.32000 636.000
33.36000 694.000
33.40000 656.000
33.44000 663.000
33.48000 644.000
33.52000 647.000
33.56000 649.000
33.60000 612.000
33.64000 658.000
33.68000 683.000
33.72000 665.000
33.76000 636.000
33.80000 590.000
33.84000 645.000
33.88000 561.000
33.92000 602.000
33.96000 586.000
34.00000 576.000
34.04000 590.000
34.08000 645.000
34.12000 617.000
34.16000 588.000
34.20000 622.000
34.24000 578.000
34.28000 556.000
34.32000 655.000
34.36000 583.000
34.40000 589.000
34.44000 603.000
34.48000 564.000
34.52000 555.000
34.56000 579.000
34.60000 570.000
34.64000 564.000
34.68000 564.000
34.72000 547.000
34.76000 547.000
34.80000 563.000
34.84000 497.000
34.88000 542.000
34.92000 549.000
34.96000 518.000
35.00000 522.000
35.04000 502.000
35.08000 504.000
35.12000 521.000
35.16000 569.000
35.20000 531.000
35.24000 526.000
35.28000 576.000
35.32000 546.000
35.36000 547.000
35.40000 588.000
35.44000 554.000
35.48000 573.000
35.52000 590.000
35.56000 600.000
35.60000 541.000
35.64000 544.000
35.68000 596.000
35.72000 559.000
35.76000 488.000
35.80000 552.000
35.84000 508.000
35.88000 507.000
35.92000 473.000
35.96000 549.000
36.00000 531.000
36.04000 547.000
36.08000 511.000
36.12000 526.000
36.16000 540.000
36.20000 506.000
36.24000 554.000
36.28000 524.000
36.32000 543.000
36.36000 531.000
36.40000 521.000
36.44000 564.000
36.48000 534.000
36.52000 509.000
36.56000 471.000
36.60000 500.000
36.64000 479.000
36.68000 524.000
36.72000 452.000
36.76000 470.000
36.80000 511.000
36.84000 459.000
36.88000 478.000
36.92000 438.000
36.96000 447.000
37.00000 474.000
37.04000 442.000
37.08000 477.000
37.12000 456.000
37.16000 465.000
37.20000 442.000
37.24000 437.000
37.28000 462.000
37.32000 433.000
37.36000 417.000
37.40000 429.000
37.44000 520.000
37.48000 461.000
37.52000 421.000
37.56000 418.000
37.60000 429.000
37.64000 468.000
37.68000 461.000
37.72000 497.000
37.76000 471.000
37.80000 497.000
37.84000 488.000
37.88000 456.000
37.92000 454.000
37.96000 468.000
38.00000 434.000
38.04000 469.000
38.08000 426.000
38.12000 459.000
38.16000 468.000
38.20000 530.000
38.24000 495.000
38.28000 497.000
38.32000 527.000
38.36000 547.000
38.40000 537.000
38.44000 597.000
38.48000 619.000
38.52000 681.000
38.56000 717.000
38.60000 724.000
38.64000 782.000
38.68000 855.000
38.72000 875.000
38.76000 838.000
38.80000 852.000
38.84000 825.000
38.88000 787.000
38.92000 689.000
38.96000 632.000
39.00000 641.000
39.04000 574.000
39.08000 565.000
39.12000 526.000
39.16000 532.000
39.20000 485.000
39.24000 483.000
39.28000 488.000
39.32000 428.000
39.36000 395.000
39.40000 422.000
39.44000 415.000
39.48000 418.000
39.52000 395.000
39.56000 399.000
39.60000 391.000
39.64000 382.000
39.68000 383.000
39.72000 411.000
39.76000 399.000
39.80000 430.000
39.84000 408.000
39.88000 435.000
39.92000 411.000
39.96000 413.000
40.00000 440.000
40.04000 425.000
40.08000 443.000
40.12000 381.000
40.16000 401.000
40.20000 408.000
40.24000 422.000
40.28000 427.000
40.32000 416.000
40.36000 408.000
40.40000 408.000
40.44000 443.000
40.48000 400.000
40.52000 387.000
40.56000 392.000
40.60000 402.000
40.64000 409.000
40.68000 452.000
40.72000 402.000
40.76000 396.000
40.80000 423.000
40.84000 416.000
40.88000 404.000
40.92000 440.000
40.96000 403.000
41.00000 435.000
41.04000 426.000
41.08000 407.000
41.12000 406.000
41.16000 396.000
41.20000 383.000
41.24000 437.000
41.28000 461.000
41.32000 438.000
41.36000 450.000
41.40000 427.000
41.44000 430.000
41.48000 397.000
41.52000 430.000
41.56000 404.000
41.60000 432.000
41.64000 402.000
41.68000 420.000
41.72000 395.000
41.76000 415.000
41.80000 373.000
41.84000 436.000
41.88000 414.000
41.92000 405.000
41.96000 411.000
42.00000 391.000
42.04000 414.000
42.08000 401.000
42.12000 368.000
42.16000 388.000
42.20000 428.000
42.24000 391.000
42.28000 420.000
42.32000 398.000
42.36000 404.000
42.40000 415.000
42.44000 381.000
42.48000 392.000
42.52000 400.000
42.56000 408.000
42.60000 407.000
42.64000 420.000
42.68000 416.000
42.72000 425.000
42.76000 373.000
42.80000 406.000
42.84000 398.000
42.88000 428.000
42.92000 393.000
42.96000 453.000
43.00000 420.000
43.04000 432.000
43.08000 435.000
43.12000 436.000
43.16000 440.000
43.20000 412.000
43.24000 477.000
43.28000 483.000
43.32000 492.000
43.36000 542.000
43.40000 554.000
43.44000 522.000
43.48000 544.000
43.52000 498.000
43.56000 477.000
43.60000 431.000
43.64000 490.000
43.68000 442.000
43.72000 422.000
43.76000 401.000
43.80000 432.000
43.84000 437.000
43.88000 462.000
43.92000 476.000
43.96000 445.000
44.00000 471.000
44.04000 485.000
44.08000 444.000
44.12000 460.000
44.16000 484.000
44.20000 416.000
44.24000 436.000
44.28000 476.000
44.32000 465.000
44.36000 464.000
44.40000 461.000
44.44000 449.000
44.48000 448.000
44.52000 444.000
44.56000 449.000
44.60000 542.000
44.64000 616.000
44.68000 655.000
44.72000 690.000
44.76000 648.000
44.80000 615.000
44.84000 609.000
44.88000 460.000
44.92000 500.000
44.96000 471.000
45.00000 530.000
45.04000 594.000
45.08000 571.000
45.12000 561.000
45.16000 726.000
45.20000 767.000
45.24000 682.000
45.28000 650.000
45.32000 660.000
45.36000 633.000
45.40000 601.000
45.44000 533.000
45.48000 586.000
45.52000 609.000
45.56000 588.000
45.60000 555.000
45.64000 556.000
45.68000 614.000
45.72000 610.000
45.76000 709.000
45.80000 858.000
45.84000 1048.000
45.88000 1416.000
45.92000 1966.000
45.96000 2903.000
46.00000 4061.000
46.04000 4531.000
46.08000 4460.000
46.12000 3948.000
46.16000 3386.000
46.20000 2605.000
46.24000 1882.000
46.28000 1268.000
46.32000 927.000
46.36000 727.000
46.40000 603.000
46.44000 531.000
46.48000 506.000
46.52000 454.000
46.56000 472.000
46.60000 441.000
46.64000 413.000
46.68000 433.000
46.72000 448.000
46.76000 379.000
46.80000 402.000
46.84000 460.000
46.88000 413.000
46.92000 431.000
46.96000 420.000
47.00000 384.000
47.04000 408.000
47.08000 401.000
47.12000 415.000
47.16000 409.000
47.20000 386.000
47.24000 385.000
47.28000 376.000
47.32000 378.000
47.36000 371.000
47.40000 372.000
47.44000 373.000
47.48000 397.000
47.52000 397.000
47.56000 352.000
47.60000 381.000
47.64000 371.000
47.68000 393.000
47.72000 360.000
47.76000 381.000
47.80000 352.000
47.84000 400.000
47.88000 398.000
47.92000 369.000
47.96000 394.000
48.00000 391.000
48.04000 343.000
48.08000 401.000
48.12000 387.000
48.16000 395.000
48.20000 369.000
48.24000 410.000
48.28000 381.000
48.32000 383.000
48.36000 365.000
48.40000 366.000
48.44000 438.000
48.48000 409.000
48.52000 375.000
48.56000 388.000
48.60000 362.000
48.64000 378.000
48.68000 349.000
48.72000 363.000
48.76000 371.000
48.80000 375.000
48.84000 367.000
48.88000 335.000
48.92000 362.000
48.96000 346.000
49.00000 397.000
49.04000 361.000
49.08000 366.000
49.12000 340.000
49.16000 385.000
49.20000 372.000
49.24000 359.000
49.28000 381.000
49.32000 348.000
49.36000 331.000
49.40000 372.000
49.44000 346.000
49.48000 403.000
49.52000 398.000
49.56000 379.000
49.60000 332.000
49.64000 345.000
49.68000 360.000
49.72000 353.000
49.76000 366.000
49.80000 349.000
49.84000 327.000
49.88000 367.000
49.92000 357.000
49.96000 388.000
50.00000 378.000
50.04000 368.000
50.08000 436.000
50.12000 394.000
50.16000 390.000
50.20000 376.000
50.24000 368.000
50.28000 370.000
50.32000 356.000
50.36000 403.000
50.40000 379.000
50.44000 357.000
50.48000 377.000
50.52000 337.000
50.56000 356.000
50.60000 344.000
50.64000 368.000
50.68000 385.000
50.72000 353.000
50.76000 399.000
50.80000 381.000
50.84000 390.000
50.88000 425.000
50.92000 356.000
50.96000 340.000
51.00000 350.000
51.04000 372.000
51.08000 385.000
51.12000 445.000
51.16000 374.000
51.20000 373.000
51.24000 387.000
51.28000 372.000
51.32000 381.000
51.36000 377.000
51.40000 374.000
51.44000 338.000
51.48000 388.000
51.52000 385.000
51.56000 376.000
51.60000 366.000
51.64000 350.000
51.68000 376.000
51.72000 387.000
51.76000 364.000
51.80000 383.000
51.84000 394.000
51.88000 332.000
51.92000 369.000
51.96000 369.000
52.00000 362.000
52.04000 374.000
52.08000 386.000
52.12000 389.000
52.16000 384.000
52.20000 395.000
52.24000 403.000
52.28000 395.000
52.32000 393.000
52.36000 422.000
52.40000 426.000
52.44000 439.000
52.48000 391.000
52.52000 432.000
52.56000 403.000
52.60000 400.000
52.64000 394.000
52.68000 384.000
52.72000 402.000
52.76000 383.000
52.80000 403.000
52.84000 375.000
52.88000 409.000
52.92000 409.000
52.96000 392.000
53.00000 420.000
53.04000 373.000
53.08000 372.000
53.12000 382.000
53.16000 371.000
53.20000 372.000
53.24000 378.000
53.28000 375.000
53.32000 378.000
53.36000 449.000
53.40000 443.000
53.44000 472.000
53.48000 455.000
53.52000 454.000
53.56000 426.000
53.60000 412.000
53.64000 408.000
53.68000 390.000
53.72000 423.000
53.76000 446.000
53.80000 426.000
53.84000 476.000
53.88000 408.000
53.92000 427.000
53.96000 450.000
54.00000 412.000
54.04000 426.000
54.08000 443.000
54.12000 388.000
54.16000 399.000
54.20000 435.000
54.24000 410.000
54.28000 426.000
54.32000 414.000
54.36000 429.000
54.40000 435.000
54.44000 426.000
54.48000 440.000
54.52000 404.000
54.56000 424.000
54.60000 428.000
54.64000 399.000
54.68000 437.000
54.72000 479.000
54.76000 419.000
54.80000 476.000
54.84000 440.000
54.88000 466.000
54.92000 449.000
54.96000 480.000
55.00000 444.000
55.04000 458.000
55.08000 446.000
55.12000 460.000
55.16000 450.000
55.20000 519.000
55.24000 525.000
55.28000 528.000
55.32000 525.000
55.36000 546.000
55.40000 553.000
55.44000 583.000
55.48000 671.000
55.52000 664.000
55.56000 727.000
55.60000 863.000
55.64000 1021.000
55.68000 1145.000
55.72000 1513.000
55.76000 2035.000
55.80000 2977.000
55.84000 4291.000
55.88000 6608.000
55.92000 9258.000
55.96000 11430.000
56.00000 11131.000
56.04000 10061.000
56.08000 8771.000
56.12000 8018.000
56.16000 6444.000
56.20000 4625.000
56.24000 3206.000
56.28000 2251.000
56.32000 1716.000
56.36000 1392.000
56.40000 1273.000
56.44000 1287.000
56.48000 1293.000
56.52000 1266.000
56.56000 1178.000
56.60000 1069.000
56.64000 1032.000
56.68000 874.000
56.72000 770.000
56.76000 646.000
56.80000 563.000
56.84000 530.000
56.88000 535.000
56.92000 535.000
56.96000 464.000
57.00000 488.000
57.04000 445.000
57.08000 455.000
57.12000 435.000
57.16000 433.000
57.20000 456.000
57.24000 448.000
57.28000 437.000
57.32000 441.000
57.36000 392.000
57.40000 447.000
57.44000 435.000
57.48000 414.000
57.52000 438.000
57.56000 473.000
57.60000 504.000
57.64000 483.000
57.68000 518.000
57.72000 505.000
57.76000 474.000
57.80000 454.000
57.84000 440.000
57.88000 472.000
57.92000 437.000
57.96000 414.000
58.00000 365.000
58.04000 381.000
58.08000 405.000
58.12000 413.000
58.16000 371.000
58.20000 431.000
58.24000 370.000
58.28000 397.000
58.32000 405.000
58.36000 386.000
58.40000 420.000
58.44000 429.000
58.48000 373.000
58.52000 417.000
58.56000 408.000
58.60000 387.000
58.64000 360.000
58.68000 380.000
58.72000 368.000
58.76000 348.000
58.80000 394.000
58.84000 394.000
58.88000 370.000
58.92000 436.000
58.96000 366.000
59.00000 358.000
59.04000 395.000
59.08000 370.000
59.12000 388.000
59.16000 373.000
59.20000 404.000
59.24000 369.000
59.28000 391.000
59.32000 419.000
59.36000 386.000
59.40000 382.000
59.44000 406.000
59.48000 381.000
59.52000 384.000
59.56000 389.000
59.60000 381.000
59.64000 400.000
59.68000 391.000
59.72000 375.000
59.76000 366.000
59.80000 405.000
59.84000 420.000
59.88000 423.000
59.92000 380.000
