5.00000 1065.000
5.04000 1123.000
5.08000 1089.000
5.12000 1066.000
5.16000 1118.000
5.20000 1078.000
5.24000 1066.000
5.28000 1050.000
5.32000 988.000
5.36000 982.000
5.40000 993.000
5.44000 1049.000
5.48000 1000.000
5.52000 987.000
5.56000 1003.000
5.60000 944.000
5.64000 988.000
5.68000 940.000
5.72000 976.000
5.76000 980.000
5.80000 998.000
5.84000 925.000
5.88000 906.000
5.92000 871.000
5.96000 854.000
6.00000 864.000
6.04000 877.000
6.08000 881.000
6.12000 866.000
6.16000 854.000
6.20000 852.000
6.24000 849.000
6.28000 889.000
6.32000 890.000
6.36000 843.000
6.40000 908.000
6.44000 807.000
6.48000 887.000
6.52000 839.000
6.56000 838.000
6.60000 827.000
6.64000 844.000
6.68000 838.000
6.72000 835.000
6.76000 816.000
6.80000 836.000
6.84000 809.000
6.88000 832.000
6.92000 805.000
6.96000 806.000
7.00000 872.000
7.04000 815.000
7.08000 772.000
7.12000 789.000
7.16000 735.000
7.20000 830.000
7.24000 732.000
7.28000 761.000
7.32000 778.000
7.36000 750.000
7.40000 775.000
7.44000 765.000
7.48000 774.000
7.52000 722.000
7.56000 732.000
7.60000 756.000
7.64000 748.000
7.68000 715.000
7.72000 740.000
7.76000 689.000
7.80000 695.000
7.84000 723.000
7.88000 691.000
7.92000 742.000
7.96000 720.000
8.00000 670.000
8.04000 657.000
8.08000 698.000
8.12000 672.000
8.16000 702.000
8.20000 652.000
8.24000 684.000
8.28000 735.000
8.32000 678.000
8.36000 682.000
8.40000 695.000
8.44000 654.000
8.48000 712.000
8.52000 681.000
8.56000 677.000
8.60000 675.000
8.64000 662.000
8.68000 674.000
8.72000 715.000
8.76000 666.000
8.80000 701.000
8.84000 755.000
8.88000 735.000
8.92000 743.000
8.96000 831.000
9.00000 930.000
9.04000 1057.000
9.08000 1119.000
9.12000 1018.000
9.16000 797.000
9.20000 734.000
9.24000 645.000
9.28000 660.000
9.32000 627.000
9.36000 589.000
9.40000 543.000
9.44000 597.000
9.48000 571.000
9.52000 548.000
9.56000 587.000
9.60000 571.000
9.64000 547.000
9.68000 602.000
9.72000 557.000
9.76000 593.000
9.80000 559.000
9.84000 587.000
9.88000 568.000
9.92000 547.000
9.96000 549.000
10.00000 558.000
10.04000 558.000
10.08000 565.000
10.12000 580.000
10.16000 542.000
10.20000 576.000
10.24000 504.000
10.28000 530.000
10.32000 540.000
10.36000 540.000
10.40000 520.000
10.44000 539.000
10.48000 520.000
10.52000 549.000
10.56000 543.000
10.60000 513.000
10.64000 542.000
10.68000 514.000
10.72000 522.000
10.76000 459.000
10.80000 507.000
10.84000 483.000
10.88000 535.000
10.92000 493.000
10.96000 497.000
11.00000 497.000
11.04000 489.000
11.08000 515.000
11.12000 515.000
11.16000 499.000
11.20000 490.000
11.24000 505.000
11.28000 431.000
11.32000 484.000
11.36000 495.000
11.40000 451.000
11.44000 452.000
11.48000 461.000
11.52000 475.000
11.56000 483.000
11.60000 504.000
11.64000 487.000
11.68000 445.000
11.72000 429.000
11.76000 448.000
11.80000 469.000
11.84000 447.000
11.88000 454.000
11.92000 473.000
11.96000 479.000
12.00000 444.000
12.04000 481.000
12.08000 439.000
12.12000 419.000
12.16000 500.000
12.20000 475.000
12.24000 479.000
12.28000 482.000
12.32000 491.000
12.36000 513.000
12.40000 491.000
12.44000 550.000
12.48000 555.000
12.52000 577.000
12.56000 602.000
12.60000 683.000
12.64000 655.000
12.68000 796.000
12.72000 852.000
12.76000 975.000
12.80000 1211.000
12.84000 1553.000
12.88000 2018.000
12.92000 2103.000
12.96000 1486.000
13.00000 926.000
13.04000 677.000
13.08000 536.000
13.12000 491.000
13.16000 446.000
13.20000 458.000
13.24000 389.000
13.28000 412.000
13.32000 440.000
13.36000 398.000
13.40000 373.000
13.44000 399.000
13.48000 421.000
13.52000 397.000
13.56000 399.000
13.60000 405.000
13.64000 393.000
13.68000 407.000
13.72000 398.000
13.76000 420.000
13.80000 405.000
13.84000 399.000
13.88000 407.000
13.92000 395.000
13.96000 412.000
14.00000 405.000
14.04000 403.000
14.08000 410.000
14.12000 369.000
14.16000 372.000
14.20000 359.000
14.24000 404.000
14.28000 398.000
14.32000 380.000
14.36000 371.000
14.40000 409.000
14.44000 375.000
14.48000 358.000
14.52000 394.000
14.56000 372.000
14.60000 374.000
14.64000 389.000
14.68000 401.000
14.72000 363.000
14.76000 382.000
14.80000 381.000
14.84000 348.000
14.88000 383.000
14.92000 379.000
14.96000 375.000
15.00000 393.000
15.04000 384.000
15.08000 389.000
15.12000 405.000
15.16000 415.000
15.20000 411.000
15.24000 405.000
15.28000 428.000
15.32000 405.000
15.36000 403.000
15.40000 447.000
15.44000 484.000
15.48000 531.000
15.52000 587.000
15.56000 628.000
15.60000 732.000
15.64000 812.000
15.68000 978.000
15.72000 1250.000
15.76000 1565.000
15.80000 1859.000
15.84000 1727.000
15.88000 1183.000
15.92000 748.000
15.96000 561.000
16.00000 443.000
16.04000 425.000
16.08000 377.000
16.12000 380.000
16.16000 374.000
16.20000 394.000
16.24000 379.000
16.28000 358.000
16.32000 360.000
16.36000 353.000
16.40000 361.000
16.44000 357.000
16.48000 355.000
16.52000 350.000
16.56000 369.000
16.60000 381.000
16.64000 362.000
16.68000 354.000
16.72000 359.000
16.76000 343.000
16.80000 378.000
16.84000 359.000
16.88000 378.000
16.92000 342.000
16.96000 372.000
17.00000 325.000
17.04000 376.000
17.08000 358.000
17.12000 345.000
17.16000 355.000
17.20000 328.000
17.24000 384.000
17.28000 320.000
17.32000 350.000
17.36000 346.000
17.40000 356.000
17.44000 361.000
17.48000 377.000
17.52000 342.000
17.56000 345.000
17.60000 374.000
17.64000 333.000
17.68000 354.000
17.72000 327.000
17.76000 390.000
17.80000 351.000
17.84000 387.000
17.88000 425.000
17.92000 415.000
17.96000 394.000
18.00000 425.000
18.04000 481.000
18.08000 575.000
18.12000 671.000
18.16000 845.000
18.20000 1146.000
18.24000 1283.000
18.28000 1106.000
18.32000 781.000
18.36000 571.000
18.40000 387.000
18.44000 391.000
18.48000 374.000
18.52000 387.000
18.56000 356.000
18.60000 358.000
18.64000 378.000
18.68000 346.000
18.72000 318.000
18.76000 365.000
18.80000 376.000
18.84000 320.000
18.88000 387.000
18.92000 358.000
18.96000 355.000
19.00000 331.000
19.04000 329.000
19.08000 359.000
19.12000 382.000
19.16000 382.000
19.20000 317.000
19.24000 341.000
19.28000 391.000
19.32000 346.000
19.36000 360.000
19.40000 368.000
19.44000 358.000
19.48000 366.000
19.52000 379.000
19.56000 340.000
19.60000 370.000
19.64000 365.000
19.68000 391.000
19.72000 360.000
19.76000 356.000
19.80000 367.000
19.84000 341.000
19.88000 355.000
19.92000 350.000
19.96000 375.000
20.00000 334.000
20.04000 381.000
20.08000 397.000
20.12000 375.000
20.16000 376.000
20.20000 387.000
20.24000 394.000
20.28000 373.000
20.32000 351.000
20.36000 374.000
20.40000 354.000
20.44000 363.000
20.48000 341.000
20.52000 368.000
20.56000 372.000
20.60000 365.000
20.64000 394.000
20.68000 362.000
20.72000 328.000
20.76000 357.000
20.80000 385.000
20.84000 340.000
20.88000 364.000
20.92000 374.000
20.96000 400.000
21.00000 412.000
21.04000 353.000
21.08000 372.000
21.12000 406.000
21.16000 406.000
21.20000 386.000
21.24000 410.000
21.28000 388.000
21.32000 414.000
21.36000 411.000
21.40000 364.000
21.44000 388.000
21.48000 451.000
21.52000 437.000
21.56000 400.000
21.60000 422.000
21.64000 417.000
21.68000 387.000
21.72000 360.000
21.76000 392.000
21.80000 403.000
21.84000 435.000
21.88000 465.000
21.92000 477.000
21.96000 485.000
22.00000 552.000
22.04000 554.000
22.08000 656.000
22.12000 780.000
22.16000 946.000
22.20000 1213.000
22.24000 1656.000
22.28000 2135.000
22.32000 2798.000
22.36000 3968.000
22.40000 4813.000
22.44000 4852.000
22.48000 4102.000
22.52000 2718.000
22.56000 1738.000
22.60000 1012.000
22.64000 746.000
22.68000 548.000
22.72000 511.000
22.76000 441.000
22.80000 424.000
22.84000 400.000
22.88000 425.000
22.92000 382.000
22.96000 429.000
23.00000 407.000
23.04000 397.000
23.08000 382.000
23.12000 413.000
23.16000 395.000
23.20000 426.000
23.24000 386.000
23.28000 425.000
23.32000 405.000
23.36000 395.000
23.40000 378.000
23.44000 403.000
23.48000 381.000
23.52000 390.000
23.56000 405.000
23.60000 410.000
23.64000 384.000
23.68000 417.000
23.72000 427.000
23.76000 404.000
23.80000 398.000
23.84000 392.000
23.88000 367.000
23.92000 418.000
23.96000 392.000
24.00000 404.000
24.04000 434.000
24.08000 466.000
24.12000 477.000
24.16000 509.000
24.20000 588.000
24.24000 636.000
24.28000 671.000
24.32000 651.000
24.36000 581.000
24.40000 481.000
24.44000 430.000
24.48000 404.000
24.52000 433.000
24.56000 404.000
24.60000 401.000
24.64000 386.000
24.68000 435.000
24.72000 439.000
24.76000 427.000
24.80000 454.000
24.84000 452.000
24.88000 407.000
24.92000 425.000
24.96000 420.000
25.00000 415.000
25.04000 446.000
25.08000 374.000
25.12000 428.000
25.16000 396.000
25.20000 424.000
25.24000 416.000
25.28000 428.000
25.32000 407.000
25.36000 435.000
25.40000 436.000
25.44000 448.000
25.48000 412.000
25.52000 412.000
25.56000 435.000
25.60000 422.000
25.64000 433.000
25.68000 454.000
25.72000 444.000
25.76000 451.000
25.80000 498.000
25.84000 491.000
25.88000 551.000
25.92000 598.000
25.96000 677.000
26.00000 793.000
26.04000 751.000
26.08000 623.000
26.12000 555.000
26.16000 505.000
26.20000 470.000
26.24000 469.000
26.28000 506.000
26.32000 525.000
26.36000 521.000
26.40000 520.000
26.44000 465.000
26.48000 445.000
26.52000 454.000
26.56000 498.000
26.60000 432.000
26.64000 443.000
26.68000 453.000
26.72000 474.000
26.76000 460.000
26.80000 492.000
26.84000 464.000
26.88000 490.000
26.92000 479.000
26.96000 492.000
27.00000 519.000
27.04000 479.000
27.08000 618.000
27.12000 693.000
27.16000 883.000
27.20000 1111.000
27.24000 1386.000
27.28000 1741.000
27.32000 2552.000
27.36000 3762.000
27.40000 5415.000
27.44000 8562.000
27.48000 12520.000
27.52000 14816.000
27.56000 14843.000
27.60000 12259.000
27.64000 8321.000
27.68000 5119.000
27.72000 2862.000
27.76000 1565.000
27.80000 976.000
27.84000 748.000
27.88000 579.000
27.92000 566.000
27.96000 513.000
28.00000 453.000
28.04000 488.000
28.08000 441.000
28.12000 457.000
28.16000 477.000
28.20000 433.000
28.24000 430.000
28.28000 431.000
28.32000 460.000
28.36000 404.000
28.40000 433.000
28.44000 441.000
28.48000 406.000
28.52000 420.000
28.56000 410.000
28.60000 412.000
28.64000 420.000
28.68000 403.000
28.72000 442.000
28.76000 459.000
28.80000 473.000
28.84000 530.000
28.88000 536.000
28.92000 591.000
28.96000 719.000
29.00000 830.000
29.04000 1081.000
29.08000 1206.000
29.12000 1008.000
29.16000 880.000
29.20000 691.000
29.24000 574.000
29.28000 522.000
29.32000 463.000
29.36000 450.000
29.40000 390.000
29.44000 427.000
29.48000 421.000
29.52000 428.000
29.56000 405.000
29.60000 409.000
29.64000 435.000
29.68000 394.000
29.72000 394.000
29.76000 421.000
29.80000 470.000
29.84000 468.000
29.88000 485.000
29.92000 485.000
29.96000 458.000
30.00000 459.000
30.04000 400.000
30.08000 389.000
30.12000 384.000
30.16000 410.000
30.20000 383.000
30.24000 414.000
30.28000 407.000
30.32000 408.000
30.36000 479.000
30.40000 534.000
30.44000 574.000
30.48000 600.000
30.52000 634.000
30.56000 538.000
30.60000 493.000
30.64000 488.000
30.68000 417.000
30.72000 407.000
30.76000 404.000
30.80000 387.000
30.84000 398.000
30.88000 411.000
30.92000 388.000
30.96000 408.000
31.00000 396.000
31.04000 397.000
31.08000 420.000
31.12000 389.000
31.16000 417.000
31.20000 381.000
31.24000 428.000
31.28000 432.000
31.32000 460.000
31.36000 473.000
31.40000 463.000
31.44000 474.000
31.48000 449.000
31.52000 481.000
31.56000 620.000
31.60000 700.000
31.64000 939.000
31.68000 1200.000
31.72000 1612.000
31.76000 2315.000
31.80000 3559.000
31.84000 5709.000
31.88000 8747.000
31.92000 11465.000
31.96000 10910.000
32.00000 8347.000
32.04000 5640.000
32.08000 3212.000
32.12000 1750.000
32.16000 1121.000
32.20000 707.000
32.24000 562.000
32.28000 495.000
32.32000 461.000
32.36000 405.000
32.40000 395.000
32.44000 396.000
32.48000 393.000
32.52000 363.000
32.56000 348.000
32.60000 374.000
32.64000 357.000
32.68000 363.000
32.72000 381.000
32.76000 374.000
32.80000 374.000
32.84000 363.000
32.88000 351.000
32.92000 347.000
32.96000 320.000
33.00000 357.000
33.04000 366.000
33.08000 331.000
33.12000 333.000
33.16000 317.000
33.20000 312.000
33.24000 357.000
33.28000 334.000
33.32000 303.000
33.36000 346.000
33.40000 337.000
33.44000 333.000
33.48000 308.000
33.52000 343.000
33.56000 327.000
33.60000 330.000
33.64000 337.000
33.68000 295.000
33.72000 320.000
33.76000 353.000
33.80000 304.000
33.84000 326.000
33.88000 312.000
33.92000 317.000
33.96000 350.000
34.00000 322.000
34.04000 314.000
34.08000 328.000
34.12000 303.000
34.16000 323.000
34.20000 311.000
34.24000 328.000
34.28000 320.000
34.32000 323.000
34.36000 322.000
34.40000 308.000
34.44000 353.000
34.48000 339.000
34.52000 351.000
34.56000 375.000
34.60000 376.000
34.64000 386.000
34.68000 385.000
34.72000 372.000
34.76000 300.000
34.80000 329.000
34.84000 306.000
34.88000 284.000
34.92000 298.000
34.96000 281.000
35.00000 261.000
35.04000 310.000
35.08000 330.000
35.12000 301.000
35.16000 287.000
35.20000 301.000
35.24000 277.000
35.28000 271.000
35.32000 298.000
35.36000 288.000
35.40000 301.000
35.44000 295.000
35.48000 308.000
35.52000 290.000
35.56000 318.000
35.60000 329.000
35.64000 298.000
35.68000 338.000
35.72000 371.000
35.76000 426.000
35.80000 525.000
35.84000 557.000
35.88000 603.000
35.92000 510.000
35.96000 447.000
36.00000 399.000
36.04000 314.000
36.08000 281.000
36.12000 306.000
36.16000 295.000
36.20000 281.000
36.24000 259.000
36.28000 256.000
36.32000 274.000
36.36000 276.000
36.40000 307.000
36.44000 257.000
36.48000 280.000
36.52000 278.000
36.56000 276.000
36.60000 286.000
36.64000 261.000
36.68000 299.000
36.72000 283.000
36.76000 243.000
36.80000 251.000
36.84000 283.000
36.88000 247.000
36.92000 284.000
36.96000 293.000
37.00000 261.000
37.04000 254.000
37.08000 281.000
37.12000 275.000
37.16000 289.000
37.20000 230.000
37.24000 257.000
37.28000 272.000
37.32000 267.000
37.36000 251.000
37.40000 278.000
37.44000 251.000
37.48000 258.000
37.52000 259.000
37.56000 225.000
37.60000 283.000
37.64000 259.000
37.68000 297.000
37.72000 295.000
37.76000 256.000
37.80000 253.000
37.84000 278.000
37.88000 277.000
37.92000 278.000
37.96000 299.000
38.00000 321.000
38.04000 320.000
38.08000 336.000
38.12000 376.000
38.16000 421.000
38.20000 427.000
38.24000 396.000
38.28000 393.000
38.32000 378.000
38.36000 351.000
38.40000 306.000
38.44000 256.000
38.48000 265.000
38.52000 284.000
38.56000 258.000
38.60000 284.000
38.64000 290.000
38.68000 277.000
38.72000 247.000
38.76000 293.000
38.80000 289.000
38.84000 274.000
38.88000 261.000
38.92000 253.000
38.96000 282.000
39.00000 301.000
39.04000 338.000
39.08000 389.000
39.12000 462.000
39.16000 562.000
39.20000 792.000
39.24000 1230.000
39.28000 1597.000
39.32000 2004.000
39.36000 2384.000
39.40000 2738.000
39.44000 2726.000
39.48000 2203.000
39.52000 1601.000
39.56000 1177.000
39.60000 818.000
39.64000 529.000
39.68000 417.000
39.72000 367.000
39.76000 334.000
39.80000 289.000
39.84000 272.000
39.88000 265.000
39.92000 257.000
39.96000 263.000
40.00000 260.000
40.04000 258.000
40.08000 258.000
40.12000 245.000
40.16000 250.000
40.20000 272.000
40.24000 242.000
40.28000 253.000
40.32000 269.000
40.36000 274.000
40.40000 283.000
40.44000 284.000
40.48000 279.000
40.52000 357.000
40.56000 326.000
40.60000 366.000
40.64000 308.000
40.68000 310.000
40.72000 238.000
40.76000 231.000
40.80000 264.000
40.84000 253.000
40.88000 262.000
40.92000 260.000
40.96000 258.000
41.00000 280.000
41.04000 274.000
41.08000 267.000
41.12000 265.000
41.16000 270.000
41.20000 282.000
41.24000 251.000
41.28000 222.000
41.32000 315.000
41.36000 283.000
41.40000 247.000
41.44000 270.000
41.48000 247.000
41.52000 228.000
41.56000 230.000
41.60000 240.000
41.64000 252.000
41.68000 234.000
41.72000 279.000
41.76000 251.000
41.80000 277.000
41.84000 247.000
41.88000 235.000
41.92000 271.000
41.96000 261.000
42.00000 244.000
42.04000 258.000
42.08000 282.000
42.12000 251.000
42.16000 246.000
42.20000 247.000
42.24000 270.000
42.28000 202.000
42.32000 261.000
42.36000 221.000
42.40000 227.000
42.44000 291.000
42.48000 242.000
42.52000 252.000
42.56000 258.000
42.60000 285.000
42.64000 256.000
42.68000 224.000
42.72000 266.000
42.76000 272.000
42.80000 236.000
42.84000 226.000
42.88000 246.000
42.92000 263.000
42.96000 286.000
43.00000 248.000
43.04000 249.000
43.08000 226.000
43.12000 278.000
43.16000 259.000
43.20000 239.000
43.24000 290.000
43.28000 265.000
43.32000 243.000
43.36000 274.000
43.40000 263.000
43.44000 256.000
43.48000 313.000
43.52000 248.000
43.56000 307.000
43.60000 325.000
43.64000 380.000
43.68000 421.000
43.72000 471.000
43.76000 515.000
43.80000 454.000
43.84000 459.000
43.88000 399.000
43.92000 357.000
43.96000 334.000
44.00000 318.000
44.04000 289.000
44.08000 249.000
44.12000 282.000
44.16000 287.000
44.20000 285.000
44.24000 290.000
44.28000 282.000
44.32000 314.000
44.36000 228.000
44.40000 271.000
44.44000 262.000
44.48000 308.000
44.52000 323.000
44.56000 316.000
44.60000 332.000
44.64000 324.000
44.68000 335.000
44.72000 430.000
44.76000 478.000
44.80000 413.000
44.84000 394.000
44.88000 396.000
44.92000 424.000
44.96000 337.000
45.00000 321.000
45.04000 319.000
45.08000 294.000
45.12000 295.000
45.16000 318.000
45.20000 306.000
45.24000 351.000
45.28000 308.000
45.32000 333.000
45.36000 339.000
45.40000 345.000
45.44000 480.000
45.48000 471.000
45.52000 640.000
45.56000 820.000
45.60000 1318.000
45.64000 1931.000
45.68000 3116.000
45.72000 4249.000
45.76000 4722.000
45.80000 4934.000
45.84000 5144.000
45.88000 4637.000
45.92000 3555.000
45.96000 2589.000
46.00000 1968.000
46.04000 1291.000
46.08000 802.000
46.12000 533.000
46.16000 433.000
46.20000 378.000
46.24000 349.000
46.28000 340.000
46.32000 329.000
46.36000 322.000
46.40000 333.000
46.44000 305.000
46.48000 335.000
46.52000 352.000
46.56000 350.000
46.60000 407.000
46.64000 482.000
46.68000 446.000
46.72000 449.000
46.76000 463.000
46.80000 407.000
46.84000 365.000
46.88000 340.000
46.92000 305.000
46.96000 333.000
47.00000 298.000
47.04000 281.000
47.08000 251.000
47.12000 279.000
47.16000 296.000
47.20000 278.000
47.24000 287.000
47.28000 267.000
47.32000 264.000
47.36000 252.000
47.40000 279.000
47.44000 268.000
47.48000 255.000
47.52000 265.000
47.56000 269.000
47.60000 318.000
47.64000 277.000
47.68000 292.000
47.72000 274.000
47.76000 273.000
47.80000 317.000
47.84000 325.000
47.88000 306.000
47.92000 315.000
47.96000 328.000
48.00000 294.000
48.04000 286.000
48.08000 242.000
48.12000 283.000
48.16000 248.000
48.20000 263.000
48.24000 219.000
48.28000 270.000
48.32000 236.000
48.36000 262.000
48.40000 270.000
48.44000 233.000
48.48000 258.000
48.52000 283.000
48.56000 275.000
48.60000 287.000
48.64000 299.000
48.68000 328.000
48.72000 362.000
48.76000 405.000
48.80000 410.000
48.84000 409.000
48.88000 364.000
48.92000 350.000
48.96000 294.000
49.00000 282.000
49.04000 305.000
49.08000 239.000
49.12000 275.000
49.16000 260.000
49.20000 259.000
49.24000 280.000
49.28000 275.000
49.32000 265.000
49.36000 231.000
49.40000 274.000
49.44000 226.000
49.48000 272.000
49.52000 268.000
49.56000 226.000
49.60000 284.000
49.64000 258.000
49.68000 319.000
49.72000 346.000
49.76000 359.000
49.80000 314.000
49.84000 324.000
49.88000 298.000
49.92000 274.000
49.96000 273.000
50.00000 250.000
50.04000 251.000
50.08000 296.000
50.12000 260.000
50.16000 236.000
50.20000 244.000
50.24000 235.000
50.28000 239.000
50.32000 278.000
50.36000 243.000
50.40000 255.000
50.44000 245.000
50.48000 242.000
50.52000 231.000
50.56000 239.000
50.60000 267.000
50.64000 245.000
50.68000 237.000
50.72000 258.000
50.76000 243.000
50.80000 244.000
50.84000 254.000
50.88000 252.000
50.92000 251.000
50.96000 251.000
51.00000 233.000
51.04000 236.000
51.08000 266.000
51.12000 290.000
51.16000 255.000
51.20000 261.000
51.24000 246.000
51.28000 281.000
51.32000 285.000
51.36000 336.000
51.40000 394.000
51.44000 494.000
51.48000 649.000
51.52000 819.000
51.56000 790.000
51.60000 859.000
51.64000 844.000
51.68000 690.000
51.72000 566.000
51.76000 463.000
51.80000 380.000
51.84000 323.000
51.88000 295.000
51.92000 287.000
51.96000 266.000
52.00000 305.000
52.04000 235.000
52.08000 272.000
52.12000 295.000
52.16000 254.000
52.20000 307.000
52.24000 242.000
52.28000 291.000
52.32000 282.000
52.36000 294.000
52.40000 299.000
52.44000 307.000
52.48000 311.000
52.52000 319.000
52.56000 284.000
52.60000 271.000
52.64000 225.000
52.68000 251.000
52.72000 240.000
52.76000 249.000
52.80000 257.000
52.84000 256.000
52.88000 258.000
52.92000 274.000
52.96000 264.000
53.00000 278.000
53.04000 245.000
53.08000 260.000
53.12000 251.000
53.16000 251.000
53.20000 274.000
53.24000 277.000
53.28000 245.000
53.32000 278.000
53.36000 274.000
53.40000 313.000
53.44000 294.000
53.48000 306.000
53.52000 320.000
53.56000 286.000
53.60000 284.000
53.64000 276.000
53.68000 304.000
53.72000 276.000
53.76000 277.000
53.80000 266.000
53.84000 256.000
53.88000 294.000
53.92000 301.000
53.96000 291.000
54.00000 374.000
54.04000 435.000
54.08000 507.000
54.12000 690.000
54.16000 983.000
54.20000 1264.000
54.24000 1496.000
54.28000 1737.000
54.32000 1802.000
54.36000 1591.000
54.40000 1321.000
54.44000 1195.000
54.48000 974.000
54.52000 773.000
54.56000 553.000
54.60000 438.000
54.64000 357.000
54.68000 318.000
54.72000 312.000
54.76000 262.000
54.80000 316.000
54.84000 309.000
54.88000 301.000
54.92000 264.000
54.96000 269.000
55.00000 270.000
55.04000 225.000
55.08000 243.000
55.12000 275.000
55.16000 284.000
55.20000 266.000
55.24000 252.000
55.28000 303.000
55.32000 284.000
55.36000 285.000
55.40000 270.000
55.44000 295.000
55.48000 264.000
55.52000 264.000
55.56000 235.000
55.60000 264.000
55.64000 260.000
55.68000 259.000
55.72000 263.000
55.76000 273.000
55.80000 286.000
55.84000 262.000
55.88000 285.000
55.92000 280.000
55.96000 264.000
56.00000 275.000
56.04000 325.000
56.08000 313.000
56.12000 306.000
56.16000 273.000
56.20000 286.000
56.24000 274.000
56.28000 290.000
56.32000 289.000
56.36000 296.000
56.40000 303.000
56.44000 344.000
56.48000 345.000
56.52000 360.000
56.56000 420.000
56.60000 567.000
56.64000 677.000
56.68000 939.000
56.72000 1522.000
56.76000 1968.000
56.80000 1924.000
56.84000 1641.000
56.88000 1713.000
56.92000 2077.000
56.96000 2030.000
57.00000 1675.000
57.04000 1251.000
57.08000 939.000
57.12000 991.000
57.16000 802.000
57.20000 594.000
57.24000 425.000
57.28000 351.000
57.32000 315.000
57.36000 320.000
57.40000 269.000
57.44000 287.000
57.48000 286.000
57.52000 255.000
57.56000 256.000
57.60000 273.000
57.64000 281.000
57.68000 245.000
57.72000 255.000
57.76000 236.000
57.80000 272.000
57.84000 281.000
57.88000 252.000
57.92000 295.000
57.96000 234.000
58.00000 238.000
58.04000 265.000
58.08000 236.000
58.12000 222.000
58.16000 265.000
58.20000 286.000
58.24000 277.000
58.28000 248.000
58.32000 289.000
58.36000 303.000
58.40000 346.000
58.44000 333.000
58.48000 343.000
58.52000 362.000
58.56000 301.000
58.60000 327.000
58.64000 335.000
58.68000 345.000
58.72000 315.000
58.76000 310.000
58.80000 283.000
58.84000 301.000
58.88000 250.000
58.92000 302.000
58.96000 255.000
59.00000 251.000
59.04000 252.000
59.08000 238.000
59.12000 218.000
59.16000 241.000
59.20000 259.000
59.24000 249.000
59.28000 234.000
59.32000 253.000
59.36000 261.000
59.40000 221.000
59.44000 326.000
59.48000 288.000
59.52000 316.000
59.56000 307.000
59.60000 258.000
59.64000 280.000
59.68000 322.000
59.72000 282.000
59.76000 251.000
59.80000 280.000
59.84000 235.000
59.88000 252.000
59.92000 247.000
