5.00000 1032.000
5.04000 1037.000
5.08000 1006.000
5.12000 1017.000
5.16000 1013.000
5.20000 1086.000
5.24000 1033.000
5.28000 1001.000
5.32000 1010.000
5.36000 995.000
5.40000 934.000
5.44000 913.000
5.48000 1004.000
5.52000 963.000
5.56000 975.000
5.60000 925.000
5.64000 891.000
5.68000 888.000
5.72000 882.000
5.76000 937.000
5.80000 932.000
5.84000 901.000
5.88000 875.000
5.92000 865.000
5.96000 851.000
6.00000 873.000
6.04000 868.000
6.08000 897.000
6.12000 861.000
6.16000 836.000
6.20000 834.000
6.24000 826.000
6.28000 880.000
6.32000 852.000
6.36000 823.000
6.40000 788.000
6.44000 871.000
6.48000 859.000
6.52000 843.000
6.56000 808.000
6.60000 819.000
6.64000 833.000
6.68000 767.000
6.72000 772.000
6.76000 779.000
6.80000 788.000
6.84000 749.000
6.88000 756.000
6.92000 748.000
6.96000 781.000
7.00000 735.000
7.04000 686.000
7.08000 760.000
7.12000 751.000
7.16000 766.000
7.20000 739.000
7.24000 723.000
7.28000 713.000
7.32000 723.000
7.36000 769.000
7.40000 705.000
7.44000 726.000
7.48000 696.000
7.52000 701.000
7.56000 692.000
7.60000 665.000
7.64000 715.000
7.68000 702.000
7.72000 668.000
7.76000 761.000
7.80000 643.000
7.84000 645.000
7.88000 691.000
7.92000 637.000
7.96000 696.000
8.00000 702.000
8.04000 655.000
8.08000 687.000
8.12000 631.000
8.16000 673.000
8.20000 640.000
8.24000 658.000
8.28000 614.000
8.32000 660.000
8.36000 687.000
8.40000 619.000
8.44000 671.000
8.48000 682.000
8.52000 653.000
8.56000 637.000
8.60000 636.000
8.64000 618.000
8.68000 634.000
8.72000 644.000
8.76000 675.000
8.80000 640.000
8.84000 626.000
8.88000 701.000
8.92000 711.000
8.96000 746.000
9.00000 825.000
9.04000 1014.000
9.08000 1154.000
9.12000 1091.000
9.16000 827.000
9.20000 706.000
9.24000 602.000
9.28000 550.000
9.32000 572.000
9.36000 585.000
9.40000 567.000
9.44000 566.000
9.48000 567.000
9.52000 543.000
9.56000 572.000
9.60000 571.000
9.64000 551.000
9.68000 555.000
9.72000 537.000
9.76000 578.000
9.80000 527.000
9.84000 554.000
9.88000 570.000
9.92000 516.000
9.96000 508.000
10.00000 546.000
10.04000 496.000
10.08000 503.000
10.12000 508.000
10.16000 538.000
10.20000 503.000
10.24000 504.000
10.28000 552.000
10.32000 538.000
10.36000 564.000
10.40000 491.000
10.44000 468.000
10.48000 496.000
10.52000 467.000
10.56000 485.000
10.60000 520.000
10.64000 494.000
10.68000 466.000
10.72000 478.000
10.76000 502.000
10.80000 496.000
10.84000 481.000
10.88000 477.000
10.92000 526.000
10.96000 476.000
11.00000 480.000
11.04000 464.000
11.08000 507.000
11.12000 475.000
11.16000 473.000
11.20000 445.000
11.24000 459.000
11.28000 460.000
11.32000 454.000
11.36000 487.000
11.40000 455.000
11.44000 443.000
11.48000 447.000
11.52000 439.000
11.56000 437.000
11.60000 456.000
11.64000 430.000
11.68000 455.000
11.72000 468.000
11.76000 440.000
11.80000 458.000
11.84000 472.000
11.88000 461.000
11.92000 427.000
11.96000 432.000
12.00000 429.000
12.04000 401.000
12.08000 445.000
12.12000 442.000
12.16000 444.000
12.20000 468.000
12.24000 445.000
12.28000 458.000
12.32000 526.000
12.36000 510.000
12.40000 552.000
12.44000 494.000
12.48000 531.000
12.52000 561.000
12.56000 603.000
12.60000 655.000
12.64000 761.000
12.68000 775.000
12.72000 786.000
12.76000 929.000
12.80000 1136.000
12.84000 1404.000
12.88000 1818.000
12.92000 1994.000
12.96000 1584.000
13.00000 1117.000
13.04000 740.000
13.08000 571.000
13.12000 473.000
13.16000 418.000
13.20000 432.000
13.24000 386.000
13.28000 378.000
13.32000 402.000
13.36000 392.000
13.40000 411.000
13.44000 409.000
13.48000 378.000
13.52000 398.000
13.56000 404.000
13.60000 382.000
13.64000 384.000
13.68000 382.000
13.72000 396.000
13.76000 363.000
13.80000 349.000
13.84000 364.000
13.88000 393.000
13.92000 361.000
13.96000 357.000
14.00000 379.000
14.04000 388.000
14.08000 364.000
14.12000 394.000
14.16000 367.000
14.20000 341.000
14.24000 338.000
14.28000 378.000
14.32000 371.000
14.36000 379.000
14.40000 394.000
14.44000 377.000
14.48000 343.000
14.52000 406.000
14.56000 362.000
14.60000 377.000
14.64000 363.000
14.68000 377.000
14.72000 347.000
14.76000 378.000
14.80000 378.000
14.84000 354.000
14.88000 373.000
14.92000 381.000
14.96000 361.000
15.00000 367.000
15.04000 378.000
15.08000 383.000
15.12000 397.000
15.16000 390.000
15.20000 399.000
15.24000 376.000
15.28000 441.000
15.32000 377.000
15.36000 400.000
15.40000 435.000
15.44000 469.000
15.48000 474.000
15.52000 530.000
15.56000 626.000
15.60000 714.000
15.64000 837.000
15.68000 1016.000
15.72000 1232.000
15.76000 1451.000
15.80000 1746.000
15.84000 1466.000
15.88000 1017.000
15.92000 605.000
15.96000 465.000
16.00000 386.000
16.04000 375.000
16.08000 364.000
16.12000 358.000
16.16000 308.000
16.20000 330.000
16.24000 303.000
16.28000 312.000
16.32000 317.000
16.36000 333.000
16.40000 323.000
16.44000 350.000
16.48000 320.000
16.52000 335.000
16.56000 350.000
16.60000 326.000
16.64000 326.000
16.68000 280.000
16.72000 328.000
16.76000 338.000
16.80000 313.000
16.84000 342.000
16.88000 324.000
16.92000 322.000
16.96000 321.000
17.00000 333.000
17.04000 295.000
17.08000 307.000
17.12000 335.000
17.16000 331.000
17.20000 326.000
17.24000 294.000
17.28000 328.000
17.32000 328.000
17.36000 324.000
17.40000 315.000
17.44000 329.000
17.48000 292.000
17.52000 312.000
17.56000 328.000
17.60000 311.000
17.64000 363.000
17.68000 316.000
17.72000 321.000
17.76000 355.000
17.80000 347.000
17.84000 344.000
17.88000 341.000
17.92000 381.000
17.96000 404.000
18.00000 379.000
18.04000 432.000
18.08000 510.000
18.12000 571.000
18.16000 785.000
18.20000 1129.000
18.24000 1433.000
18.28000 1358.000
18.32000 995.000
18.36000 634.000
18.40000 440.000
18.44000 438.000
18.48000 340.000
18.52000 347.000
18.56000 296.000
18.60000 327.000
18.64000 334.000
18.68000 311.000
18.72000 320.000
18.76000 324.000
18.80000 325.000
18.84000 301.000
18.88000 287.000
18.92000 323.000
18.96000 306.000
19.00000 326.000
19.04000 331.000
19.08000 290.000
19.12000 326.000
19.16000 317.000
19.20000 311.000
19.24000 277.000
19.28000 342.000
19.32000 323.000
19.36000 303.000
19.40000 335.000
19.44000 289.000
19.48000 318.000
19.52000 321.000
19.56000 302.000
19.60000 317.000
19.64000 319.000
19.68000 306.000
19.72000 320.000
19.76000 351.000
19.80000 316.000
19.84000 343.000
19.88000 336.000
19.92000 328.000
19.96000 320.000
20.00000 288.000
20.04000 323.000
20.08000 317.000
20.12000 320.000
20.16000 320.000
20.20000 298.000
20.24000 338.000
20.28000 292.000
20.32000 366.000
20.36000 316.000
20.40000 290.000
20.44000 357.000
20.48000 301.000
20.52000 299.000
20.56000 312.000
20.60000 288.000
20.64000 311.000
20.68000 336.000
20.72000 302.000
20.76000 310.000
20.80000 331.000
20.84000 316.000
20.88000 351.000
20.92000 310.000
20.96000 318.000
21.00000 308.000
21.04000 324.000
21.08000 317.000
21.12000 353.000
21.16000 297.000
21.20000 308.000
21.24000 325.000
21.28000 328.000
21.32000 334.000
21.36000 356.000
21.40000 333.000
21.44000 337.000
21.48000 341.000
21.52000 385.000
21.56000 338.000
21.60000 359.000
21.64000 333.000
21.68000 333.000
21.72000 327.000
21.76000 385.000
21.80000 389.000
21.84000 347.000
21.88000 371.000
21.92000 404.000
21.96000 443.000
22.00000 488.000
22.04000 569.000
22.08000 634.000
22.12000 727.000
22.16000 900.000
22.20000 1126.000
22.24000 1613.000
22.28000 2072.000
22.32000 2747.000
22.36000 3813.000
22.40000 4822.000
22.44000 5113.000
22.48000 4114.000
22.52000 2870.000
22.56000 1689.000
22.60000 951.000
22.64000 633.000
22.68000 526.000
22.72000 370.000
22.76000 386.000
22.80000 385.000
22.84000 331.000
22.88000 375.000
22.92000 351.000
22.96000 351.000
23.00000 329.000
23.04000 354.000
23.08000 353.000
23.12000 312.000
23.16000 306.000
23.20000 342.000
23.24000 344.000
23.28000 366.000
23.32000 350.000
23.36000 315.000
23.40000 347.000
23.44000 335.000
23.48000 312.000
23.52000 348.000
23.56000 369.000
23.60000 336.000
23.64000 309.000
23.68000 320.000
23.72000 317.000
23.76000 336.000
23.80000 321.000
23.84000 324.000
23.88000 346.000
23.92000 323.000
23.96000 331.000
24.00000 367.000
24.04000 384.000
24.08000 390.000
24.12000 449.000
24.16000 478.000
24.20000 500.000
24.24000 609.000
24.28000 623.000
24.32000 527.000
24.36000 457.000
24.40000 408.000
24.44000 376.000
24.48000 363.000
24.52000 342.000
24.56000 339.000
24.60000 341.000
24.64000 365.000
24.68000 363.000
24.72000 373.000
24.76000 343.000
24.80000 376.000
24.84000 390.000
24.88000 387.000
24.92000 382.000
24.96000 345.000
25.00000 341.000
25.04000 367.000
25.08000 359.000
25.12000 346.000
25.16000 331.000
25.20000 342.000
25.24000 327.000
25.28000 313.000
25.32000 332.000
25.36000 355.000
25.40000 339.000
25.44000 357.000
25.48000 357.000
25.52000 336.000
25.56000 320.000
25.60000 366.000
25.64000 314.000
25.68000 347.000
25.72000 389.000
25.76000 392.000
25.80000 391.000
25.84000 392.000
25.88000 472.000
25.92000 514.000
25.96000 588.000
26.00000 719.000
26.04000 668.000
26.08000 612.000
26.12000 458.000
26.16000 449.000
26.20000 422.000
26.24000 424.000
26.28000 481.000
26.32000 483.000
26.36000 524.000
26.40000 475.000
26.44000 450.000
26.48000 431.000
26.52000 433.000
26.56000 407.000
26.60000 409.000
26.64000 400.000
26.68000 407.000
26.72000 416.000
26.76000 426.000
26.80000 430.000
26.84000 397.000
26.88000 451.000
26.92000 394.000
26.96000 416.000
27.00000 437.000
27.04000 495.000
27.08000 552.000
27.12000 613.000
27.16000 711.000
27.20000 826.000
27.24000 1087.000
27.28000 1556.000
27.32000 2242.000
27.36000 3195.000
27.40000 5325.000
27.44000 9574.000
27.48000 17441.000
27.52000 23112.000
27.56000 23394.000
27.60000 19426.000
27.64000 12809.000
27.68000 7558.000
27.72000 3905.000
27.76000 2073.000
27.80000 1149.000
27.84000 849.000
27.88000 614.000
27.92000 527.000
27.96000 484.000
28.00000 454.000
28.04000 434.000
28.08000 469.000
28.12000 414.000
28.16000 366.000
28.20000 421.000
28.24000 453.000
28.28000 415.000
28.32000 394.000
28.36000 388.000
28.40000 376.000
28.44000 388.000
28.48000 360.000
28.52000 418.000
28.56000 333.000
28.60000 391.000
28.64000 366.000
28.68000 415.000
28.72000 416.000
28.76000 445.000
28.80000 443.000
28.84000 418.000
28.88000 515.000
28.92000 578.000
28.96000 686.000
29.00000 887.000
29.04000 1147.000
29.08000 1179.000
29.12000 1175.000
29.16000 891.000
29.20000 644.000
29.24000 438.000
29.28000 430.000
29.32000 385.000
29.36000 400.000
29.40000 384.000
29.44000 386.000
29.48000 375.000
29.52000 405.000
29.56000 389.000
29.60000 339.000
29.64000 354.000
29.68000 354.000
29.72000 366.000
29.76000 385.000
29.80000 359.000
29.84000 395.000
29.88000 472.000
29.92000 471.000
29.96000 456.000
30.00000 457.000
30.04000 406.000
30.08000 398.000
30.12000 354.000
30.16000 349.000
30.20000 341.000
30.24000 352.000
30.28000 378.000
30.32000 360.000
30.36000 417.000
30.40000 433.000
30.44000 525.000
30.48000 597.000
30.52000 604.000
30.56000 523.000
30.60000 474.000
30.64000 430.000
30.68000 372.000
30.72000 357.000
30.76000 338.000
30.80000 360.000
30.84000 366.000
30.88000 348.000
30.92000 346.000
30.96000 351.000
31.00000 344.000
31.04000 393.000
31.08000 375.000
31.12000 344.000
31.16000 336.000
31.20000 306.000
31.24000 395.000
31.28000 374.000
31.32000 362.000
31.36000 351.000
31.40000 431.000
31.44000 388.000
31.48000 432.000
31.52000 495.000
31.56000 551.000
31.60000 704.000
31.64000 963.000
31.68000 1348.000
31.72000 2023.000
31.76000 2842.000
31.80000 3964.000
31.84000 5656.000
31.88000 8552.000
31.92000 11105.000
31.96000 11003.000
32.00000 8501.000
32.04000 5810.000
32.08000 3321.000
32.12000 1752.000
32.16000 1008.000
32.20000 702.000
32.24000 508.000
32.28000 428.000
32.32000 401.000
32.36000 406.000
32.40000 360.000
32.44000 319.000
32.48000 347.000
32.52000 351.000
32.56000 344.000
32.60000 338.000
32.64000 324.000
32.68000 313.000
32.72000 345.000
32.76000 295.000
32.80000 326.000
32.84000 341.000
32.88000 320.000
32.92000 287.000
32.96000 266.000
33.00000 328.000
33.04000 282.000
33.08000 315.000
33.12000 298.000
33.16000 302.000
33.20000 321.000
33.24000 253.000
33.28000 281.000
33.32000 291.000
33.36000 266.000
33.40000 276.000
33.44000 256.000
33.48000 298.000
33.52000 301.000
33.56000 307.000
33.60000 269.000
33.64000 263.000
33.68000 285.000
33.72000 288.000
33.76000 272.000
33.80000 273.000
33.84000 254.000
33.88000 277.000
33.92000 231.000
33.96000 265.000
34.00000 310.000
34.04000 260.000
34.08000 262.000
34.12000 271.000
34.16000 295.000
34.20000 279.000
34.24000 254.000
34.28000 289.000
34.32000 274.000
34.36000 283.000
34.40000 268.000
34.44000 285.000
34.48000 303.000
34.52000 310.000
34.56000 317.000
34.60000 356.000
34.64000 316.000
34.68000 333.000
34.72000 294.000
34.76000 304.000
34.80000 262.000
34.84000 265.000
34.88000 237.000
34.92000 277.000
34.96000 275.000
35.00000 245.000
35.04000 274.000
35.08000 260.000
35.12000 258.000
35.16000 268.000
35.20000 259.000
35.24000 277.000
35.28000 273.000
35.32000 241.000
35.36000 257.000
35.40000 247.000
35.44000 258.000
35.48000 290.000
35.52000 295.000
35.56000 289.000
35.60000 269.000
35.64000 318.000
35.68000 313.000
35.72000 386.000
35.76000 468.000
35.80000 570.000
35.84000 549.000
35.88000 547.000
35.92000 489.000
35.96000 405.000
36.00000 341.000
36.04000 272.000
36.08000 264.000
36.12000 258.000
36.16000 229.000
36.20000 268.000
36.24000 252.000
36.28000 288.000
36.32000 239.000
36.36000 229.000
36.40000 218.000
36.44000 232.000
36.48000 244.000
36.52000 261.000
36.56000 226.000
36.60000 240.000
36.64000 260.000
36.68000 244.000
36.72000 260.000
36.76000 249.000
36.80000 222.000
36.84000 258.000
36.88000 235.000
36.92000 261.000
36.96000 226.000
37.00000 248.000
37.04000 248.000
37.08000 227.000
37.12000 227.000
37.16000 248.000
37.20000 226.000
37.24000 223.000
37.28000 244.000
37.32000 248.000
37.36000 227.000
37.40000 218.000
37.44000 258.000
37.48000 223.000
37.52000 241.000
37.56000 247.000
37.60000 236.000
37.64000 255.000
37.68000 246.000
37.72000 270.000
37.76000 243.000
37.80000 238.000
37.84000 216.000
37.88000 259.000
37.92000 246.000
37.96000 258.000
38.00000 265.000
38.04000 283.000
38.08000 300.000
38.12000 385.000
38.16000 400.000
38.20000 463.000
38.24000 436.000
38.28000 356.000
38.32000 346.000
38.36000 315.000
38.40000 261.000
38.44000 268.000
38.48000 243.000
38.52000 247.000
38.56000 250.000
38.60000 260.000
38.64000 263.000
38.68000 271.000
38.72000 238.000
38.76000 248.000
38.80000 259.000
38.84000 283.000
38.88000 253.000
38.92000 251.000
38.96000 253.000
39.00000 309.000
39.04000 324.000
39.08000 351.000
39.12000 447.000
39.16000 563.000
39.20000 779.000
39.24000 1210.000
39.28000 1746.000
39.32000 2070.000
39.36000 2499.000
39.40000 3001.000
39.44000 2994.000
39.48000 2487.000
39.52000 1917.000
39.56000 1412.000
39.60000 851.000
39.64000 538.000
39.68000 434.000
39.72000 303.000
39.76000 323.000
39.80000 254.000
39.84000 264.000
39.88000 253.000
39.92000 248.000
39.96000 225.000
40.00000 248.000
40.04000 253.000
40.08000 271.000
40.12000 242.000
40.16000 218.000
40.20000 240.000
40.24000 262.000
40.28000 245.000
40.32000 250.000
40.36000 230.000
40.40000 246.000
40.44000 281.000
40.48000 324.000
40.52000 346.000
40.56000 336.000
40.60000 281.000
40.64000 287.000
40.68000 260.000
40.72000 260.000
40.76000 233.000
40.80000 236.000
40.84000 253.000
40.88000 249.000
40.92000 253.000
40.96000 191.000
41.00000 226.000
41.04000 243.000
41.08000 231.000
41.12000 216.000
41.16000 263.000
41.20000 220.000
41.24000 237.000
41.28000 250.000
41.32000 242.000
41.36000 226.000
41.40000 206.000
41.44000 215.000
41.48000 212.000
41.52000 207.000
41.56000 256.000
41.60000 215.000
41.64000 253.000
41.68000 238.000
41.72000 217.000
41.76000 256.000
41.80000 226.000
41.84000 243.000
41.88000 252.000
41.92000 221.000
41.96000 239.000
42.00000 237.000
42.04000 241.000
42.08000 227.000
42.12000 252.000
42.16000 257.000
42.20000 247.000
42.24000 232.000
42.28000 237.000
42.32000 207.000
42.36000 257.000
42.40000 242.000
42.44000 224.000
42.48000 253.000
42.52000 242.000
42.56000 251.000
42.60000 217.000
42.64000 226.000
42.68000 252.000
42.72000 232.000
42.76000 256.000
42.80000 258.000
42.84000 232.000
42.88000 236.000
42.92000 252.000
42.96000 244.000
43.00000 214.000
43.04000 241.000
43.08000 256.000
43.12000 219.000
43.16000 248.000
43.20000 269.000
43.24000 224.000
43.28000 212.000
43.32000 254.000
43.36000 247.000
43.40000 227.000
43.44000 243.000
43.48000 278.000
43.52000 259.000
43.56000 277.000
43.60000 274.000
43.64000 314.000
43.68000 384.000
43.72000 444.000
43.76000 489.000
43.80000 496.000
43.84000 419.000
43.88000 385.000
43.92000 331.000
43.96000 287.000
44.00000 267.000
44.04000 265.000
44.08000 289.000
44.12000 266.000
44.16000 250.000
44.20000 236.000
44.24000 238.000
44.28000 243.000
44.32000 252.000
44.36000 282.000
44.40000 280.000
44.44000 245.000
44.48000 294.000
44.52000 287.000
44.56000 289.000
44.60000 297.000
44.64000 304.000
44.68000 382.000
44.72000 424.000
44.76000 472.000
44.80000 446.000
44.84000 429.000
44.88000 401.000
44.92000 339.000
44.96000 286.000
45.00000 329.000
45.04000 271.000
45.08000 254.000
45.12000 281.000
45.16000 281.000
45.20000 291.000
45.24000 309.000
45.28000 265.000
45.32000 289.000
45.36000 325.000
45.40000 363.000
45.44000 413.000
45.48000 514.000
45.52000 573.000
45.56000 920.000
45.60000 1226.000
45.64000 1894.000
45.68000 3016.000
45.72000 4237.000
45.76000 4616.000
45.80000 4837.000
45.84000 5483.000
45.88000 4963.000
45.92000 3512.000
45.96000 2696.000
46.00000 2150.000
46.04000 1380.000
46.08000 854.000
46.12000 621.000
46.16000 455.000
46.20000 363.000
46.24000 350.000
46.28000 301.000
46.32000 310.000
46.36000 286.000
46.40000 279.000
46.44000 277.000
46.48000 304.000
46.52000 295.000
46.56000 369.000
46.60000 402.000
46.64000 543.000
46.68000 758.000
46.72000 692.000
46.76000 569.000
46.80000 521.000
46.84000 492.000
46.88000 370.000
46.92000 328.000
46.96000 288.000
47.00000 284.000
47.04000 249.000
47.08000 249.000
47.12000 271.000
47.16000 242.000
47.20000 270.000
47.24000 254.000
47.28000 232.000
47.32000 266.000
47.36000 236.000
47.40000 221.000
47.44000 231.000
47.48000 245.000
47.52000 251.000
47.56000 240.000
47.60000 272.000
47.64000 268.000
47.68000 281.000
47.72000 272.000
47.76000 277.000
47.80000 314.000
47.84000 338.000
47.88000 303.000
47.92000 284.000
47.96000 319.000
48.00000 290.000
48.04000 257.000
48.08000 257.000
48.12000 206.000
48.16000 202.000
48.20000 271.000
48.24000 221.000
48.28000 228.000
48.32000 254.000
48.36000 252.000
48.40000 278.000
48.44000 269.000
48.48000 262.000
48.52000 229.000
48.56000 275.000
48.60000 280.000
48.64000 273.000
48.68000 297.000
48.72000 371.000
48.76000 413.000
48.80000 436.000
48.84000 415.000
48.88000 391.000
48.92000 342.000
48.96000 332.000
49.00000 299.000
49.04000 249.000
49.08000 257.000
49.12000 261.000
49.16000 250.000
49.20000 230.000
49.24000 225.000
49.28000 246.000
49.32000 236.000
49.36000 252.000
49.40000 228.000
49.44000 219.000
49.48000 236.000
49.52000 225.000
49.56000 282.000
49.60000 256.000
49.64000 280.000
49.68000 275.000
49.72000 346.000
49.76000 336.000
49.80000 302.000
49.84000 292.000
49.88000 290.000
49.92000 259.000
49.96000 253.000
50.00000 234.000
50.04000 264.000
50.08000 235.000
50.12000 225.000
50.16000 225.000
50.20000 236.000
50.24000 240.000
50.28000 251.000
50.32000 229.000
50.36000 212.000
50.40000 269.000
50.44000 266.000
50.48000 239.000
50.52000 222.000
50.56000 217.000
50.60000 234.000
50.64000 221.000
50.68000 240.000
50.72000 242.000
50.76000 231.000
50.80000 223.000
50.84000 297.000
50.88000 241.000
50.92000 253.000
50.96000 228.000
51.00000 246.000
51.04000 268.000
51.08000 222.000
51.12000 222.000
51.16000 264.000
51.20000 260.000
51.24000 275.000
51.28000 264.000
51.32000 258.000
51.36000 327.000
51.40000 385.000
51.44000 523.000
51.48000 688.000
51.52000 819.000
51.56000 878.000
51.60000 880.000
51.64000 798.000
51.68000 759.000
51.72000 542.000
51.76000 544.000
51.80000 389.000
51.84000 326.000
51.88000 296.000
51.92000 268.000
51.96000 237.000
52.00000 270.000
52.04000 238.000
52.08000 244.000
52.12000 242.000
52.16000 252.000
52.20000 247.000
52.24000 258.000
52.28000 303.000
52.32000 300.000
52.36000 327.000
52.40000 317.000
52.44000 309.000
52.48000 295.000
52.52000 289.000
52.56000 272.000
52.60000 291.000
52.64000 247.000
52.68000 245.000
52.72000 242.000
52.76000 245.000
52.80000 256.000
52.84000 238.000
52.88000 217.000
52.92000 227.000
52.96000 224.000
53.00000 248.000
53.04000 214.000
53.08000 237.000
53.12000 266.000
53.16000 236.000
53.20000 235.000
53.24000 256.000
53.28000 291.000
53.32000 261.000
53.36000 274.000
53.40000 263.000
53.44000 292.000
53.48000 326.000
53.52000 283.000
53.56000 269.000
53.60000 307.000
53.64000 280.000
53.68000 243.000
53.72000 232.000
53.76000 261.000
53.80000 242.000
53.84000 254.000
53.88000 262.000
53.92000 317.000
53.96000 301.000
54.00000 347.000
54.04000 457.000
54.08000 606.000
54.12000 777.000
54.16000 1069.000
54.20000 1538.000
54.24000 1712.000
54.28000 2089.000
54.32000 2257.000
54.36000 2096.000
54.40000 1640.000
54.44000 1393.000
54.48000 1185.000
54.52000 936.000
54.56000 647.000
54.60000 448.000
54.64000 334.000
54.68000 335.000
54.72000 280.000
54.76000 284.000
54.80000 264.000
54.84000 280.000
54.88000 274.000
54.92000 293.000
54.96000 266.000
55.00000 286.000
55.04000 248.000
55.08000 282.000
55.12000 292.000
55.16000 291.000
55.20000 247.000
55.24000 299.000
55.28000 276.000
55.32000 263.000
55.36000 240.000
55.40000 238.000
55.44000 274.000
55.48000 271.000
55.52000 307.000
55.56000 259.000
55.60000 286.000
55.64000 259.000
55.68000 263.000
55.72000 251.000
55.76000 261.000
55.80000 263.000
55.84000 244.000
55.88000 284.000
55.92000 278.000
55.96000 307.000
56.00000 279.000
56.04000 326.000
56.08000 320.000
56.12000 289.000
56.16000 258.000
56.20000 291.000
56.24000 311.000
56.28000 254.000
56.32000 289.000
56.36000 251.000
56.40000 332.000
56.44000 345.000
56.48000 330.000
56.52000 402.000
56.56000 447.000
56.60000 586.000
56.64000 787.000
56.68000 1311.000
56.72000 2580.000
56.76000 4227.000
56.80000 4509.000
56.84000 3413.000
56.88000 3149.000
56.92000 3842.000
56.96000 3966.000
57.00000 3037.000
57.04000 2082.000
57.08000 1522.000
57.12000 1350.000
57.16000 1131.000
57.20000 766.000
57.24000 541.000
57.28000 418.000
57.32000 313.000
57.36000 290.000
57.40000 304.000
57.44000 283.000
57.48000 266.000
57.52000 257.000
57.56000 267.000
57.60000 264.000
57.64000 246.000
57.68000 271.000
57.72000 257.000
57.76000 232.000
57.80000 251.000
57.84000 250.000
57.88000 247.000
57.92000 268.000
57.96000 221.000
58.00000 257.000
58.04000 260.000
58.08000 266.000
58.12000 231.000
58.16000 253.000
58.20000 223.000
58.24000 225.000
58.28000 259.000
58.32000 267.000
58.36000 270.000
58.40000 348.000
58.44000 374.000
58.48000 413.000
58.52000 354.000
58.56000 315.000
58.60000 351.000
58.64000 369.000
58.68000 343.000
58.72000 322.000
58.76000 303.000
58.80000 271.000
58.84000 279.000
58.88000 260.000
58.92000 244.000
58.96000 250.000
59.00000 222.000
59.04000 219.000
59.08000 231.000
59.12000 249.000
59.16000 219.000
59.20000 232.000
59.24000 248.000
59.28000 231.000
59.32000 220.000
59.36000 225.000
59.40000 256.000
59.44000 287.000
59.48000 272.000
59.52000 272.000
59.56000 308.000
59.60000 299.000
59.64000 281.000
59.68000 280.000
59.72000 280.000
59.76000 266.000
59.80000 240.000
59.84000 264.000
59.88000 217.000
59.92000 239.000
