10.0000 149.0000
10.0200 138.0000
10.0400 112.0000
10.0600 152.0000
10.0800 142.0000
10.1000 146.0000
10.1200 134.0000
10.1400 144.0000
10.1600 117.0000
10.1800 128.0000
10.2000 136.0000
10.2200 120.0000
10.2400 123.0000
10.2600 114.0000
10.2800 141.0000
10.3000 146.0000
10.3200 122.0000
10.3400 123.0000
10.3600 143.0000
10.3800 114.0000
10.4000 139.0000
10.4200 128.0000
10.4400 120.0000
10.4600 124.0000
10.4800 111.0000
10.5000 141.0000
10.5200 124.0000
10.5400 126.0000
10.5600 126.0000
10.5800 113.0000
10.6000 143.0000
10.6200 146.0000
10.6400 127.0000
10.6600 142.0000
10.6800 126.0000
10.7000 115.0000
10.7200 129.0000
10.7400 114.0000
10.7600 119.0000
10.7800 146.0000
10.8000 126.0000
10.8200 120.0000
10.8400 104.0000
10.8600 132.0000
10.8800 106.0000
10.9000 122.0000
10.9200 126.0000
10.9400 123.0000
10.9600 137.0000
10.9800 144.0000
11.0000 137.0000
11.0200 119.0000
11.0400 120.0000
11.0600 114.0000
11.0800 120.0000
11.1000 135.0000
11.1200 107.0000
11.1400 128.0000
11.1600 110.0000
11.1800 107.0000
11.2000 144.0000
11.2200 106.0000
11.2400 123.0000
11.2600 134.0000
11.2800 119.0000
11.3000 115.0000
11.3200 118.0000
11.3400 140.0000
11.3600 109.0000
11.3800 110.0000
11.4000 99.0000
11.4200 107.0000
11.4400 116.0000
11.4600 134.0000
11.4800 118.0000
11.5000 101.0000
11.5200 122.0000
11.5400 117.0000
11.5600 138.0000
11.5800 114.0000
11.6000 101.0000
11.6200 126.0000
11.6400 130.0000
11.6600 146.0000
11.6800 126.0000
11.7000 120.0000
11.7200 135.0000
11.7400 133.0000
11.7600 102.0000
11.7800 116.0000
11.8000 138.0000
11.8200 111.0000
11.8400 111.0000
11.8600 133.0000
11.8800 118.0000
11.9000 129.0000
11.9200 112.0000
11.9400 114.0000
11.9600 105.0000
11.9800 132.0000
12.0000 119.0000
12.0200 113.0000
12.0400 103.0000
12.0600 135.0000
12.0800 141.0000
12.1000 110.0000
12.1200 129.0000
12.1400 100.0000
12.1600 130.0000
12.1800 126.0000
12.2000 120.0000
12.2200 126.0000
12.2400 126.0000
12.2600 134.0000
12.2800 128.0000
12.3000 112.0000
12.3200 135.0000
12.3400 107.0000
12.3600 131.0000
12.3800 119.0000
12.4000 116.0000
12.4200 114.0000
12.4400 133.0000
12.4600 110.0000
12.4800 119.0000
12.5000 139.0000
12.5200 144.0000
12.5400 123.0000
12.5600 136.0000
12.5800 132.0000
12.6000 130.0000
12.6200 127.0000
12.6400 126.0000
12.6600 126.0000
12.6800 130.0000
12.7000 128.0000
12.7200 132.0000
12.7400 129.0000
12.7600 144.0000
12.7800 113.0000
12.8000 146.0000
12.8200 114.0000
12.8400 115.0000
12.8600 109.0000
12.8800 111.0000
12.9000 113.0000
12.9200 130.0000
12.9400 117.0000
12.9600 119.0000
12.9800 130.0000
13.0000 122.0000
13.0200 124.0000
13.0400 121.0000
13.0600 119.0000
13.0800 122.0000
13.1000 119.0000
13.1200 138.0000
13.1400 125.0000
13.1600 107.0000
13.1800 116.0000
13.2000 109.0000
13.2200 105.0000
13.2400 133.0000
13.2600 112.0000
13.2800 117.0000
13.3000 126.0000
13.3200 104.0000
13.3400 123.0000
13.3600 112.0000
13.3800 130.0000
13.4000 125.0000
13.4200 128.0000
13.4400 104.0000
13.4600 118.0000
13.4800 119.0000
13.5000 141.0000
13.5200 102.0000
13.5400 105.0000
13.5600 130.0000
13.5800 114.0000
13.6000 117.0000
13.6200 113.0000
13.6400 102.0000
13.6600 103.0000
13.6800 125.0000
13.7000 100.0000
13.7200 118.0000
13.7400 117.0000
13.7600 108.0000
13.7800 137.0000
13.8000 98.0000
13.8200 121.0000
13.8400 128.0000
13.8600 103.0000
13.8800 126.0000
13.9000 114.0000
13.9200 113.0000
13.9400 129.0000
13.9600 114.0000
13.9800 115.0000
14.0000 111.0000
14.0200 111.0000
14.0400 128.0000
14.0600 114.0000
14.0800 117.0000
14.1000 106.0000
14.1200 117.0000
14.1400 125.0000
14.1600 124.0000
14.1800 120.0000
14.2000 118.0000
14.2200 122.0000
14.2400 122.0000
14.2600 129.0000
14.2800 130.0000
14.3000 139.0000
14.3200 115.0000
14.3400 121.0000
14.3600 100.0000
14.3800 108.0000
14.4000 115.0000
14.4200 117.0000
14.4400 101.0000
14.4600 126.0000
14.4800 124.0000
14.5000 124.0000
14.5200 118.0000
14.5400 120.0000
14.5600 139.0000
14.5800 132.0000
14.6000 120.0000
14.6200 130.0000
14.6400 126.0000
14.6600 121.0000
14.6800 130.0000
14.7000 115.0000
14.7200 127.0000
14.7400 144.0000
14.7600 135.0000
14.7800 137.0000
14.8000 121.0000
14.8200 126.0000
14.8400 130.0000
14.8600 142.0000
14.8800 134.0000
14.9000 122.0000
14.9200 161.0000
14.9400 125.0000
14.9600 127.0000
14.9800 117.0000
15.0000 142.0000
15.0200 148.0000
15.0400 134.0000
15.0600 169.0000
15.0800 153.0000
15.1000 185.0000
15.1200 195.0000
15.1400 185.0000
15.1600 172.0000
15.1800 210.0000
15.2000 210.0000
15.2200 185.0000
15.2400 180.0000
15.2600 187.0000
15.2800 169.0000
15.3000 163.0000
15.3200 148.0000
15.3400 145.0000
15.3600 141.0000
15.3800 136.0000
15.4000 155.0000
15.4200 144.0000
15.4400 134.0000
15.4600 131.0000
15.4800 143.0000
15.5000 132.0000
15.5200 121.0000
15.5400 118.0000
15.5600 126.0000
15.5800 137.0000
15.6000 105.0000
15.6200 118.0000
15.6400 131.0000
15.6600 152.0000
15.6800 118.0000
15.7000 134.0000
15.7200 134.0000
15.7400 114.0000
15.7600 126.0000
15.7800 127.0000
15.8000 136.0000
15.8200 123.0000
15.8400 116.0000
15.8600 122.0000
15.8800 122.0000
15.9000 112.0000
15.9200 133.0000
15.9400 139.0000
15.9600 121.0000
15.9800 139.0000
16.0000 138.0000
16.0200 126.0000
16.0400 121.0000
16.0600 158.0000
16.0800 111.0000
16.1000 109.0000
16.1200 126.0000
16.1400 138.0000
16.1600 119.0000
16.1800 148.0000
16.2000 118.0000
16.2200 99.0000
16.2400 137.0000
16.2600 117.0000
16.2800 140.0000
16.3000 135.0000
16.3200 122.0000
16.3400 108.0000
16.3600 137.0000
16.3800 151.0000
16.4000 129.0000
16.4200 118.0000
16.4400 127.0000
16.4600 129.0000
16.4800 121.0000
16.5000 153.0000
16.5200 127.0000
16.5400 136.0000
16.5600 142.0000
16.5800 144.0000
16.6000 128.0000
16.6200 148.0000
16.6400 127.0000
16.6600 123.0000
16.6800 134.0000
16.7000 127.0000
16.7200 116.0000
16.7400 140.0000
16.7600 134.0000
16.7800 144.0000
16.8000 128.0000
16.8200 136.0000
16.8400 155.0000
16.8600 145.0000
16.8800 169.0000
16.9000 158.0000
16.9200 143.0000
16.9400 186.0000
16.9600 137.0000
16.9800 182.0000
17.0000 203.0000
17.0200 183.0000
17.0400 207.0000
17.0600 208.0000
17.0800 235.0000
17.1000 230.0000
17.1200 251.0000
17.1400 273.0000
17.1600 298.0000
17.1800 328.0000
17.2000 342.0000
17.2200 375.0000
17.2400 335.0000
17.2600 328.0000
17.2800 294.0000
17.3000 241.0000
17.3200 200.0000
17.3400 189.0000
17.3600 176.0000
17.3800 164.0000
17.4000 185.0000
17.4200 163.0000
17.4400 168.0000
17.4600 168.0000
17.4800 161.0000
17.5000 152.0000
17.5200 163.0000
17.5400 164.0000
17.5600 164.0000
17.5800 149.0000
17.6000 138.0000
17.6200 149.0000
17.6400 143.0000
17.6600 158.0000
17.6800 161.0000
17.7000 167.0000
17.7200 144.0000
17.7400 150.0000
17.7600 165.0000
17.7800 138.0000
17.8000 163.0000
17.8200 131.0000
17.8400 145.0000
17.8600 134.0000
17.8800 169.0000
17.9000 175.0000
17.9200 172.0000
17.9400 187.0000
17.9600 172.0000
17.9800 167.0000
18.0000 140.0000
18.0200 149.0000
18.0400 158.0000
18.0600 160.0000
18.0800 164.0000
18.1000 160.0000
18.1200 155.0000
18.1400 144.0000
18.1600 144.0000
18.1800 136.0000
18.2000 148.0000
18.2200 141.0000
18.2400 155.0000
18.2600 154.0000
18.2800 157.0000
18.3000 141.0000
18.3200 157.0000
18.3400 136.0000
18.3600 129.0000
18.3800 146.0000
18.4000 132.0000
18.4200 158.0000
18.4400 166.0000
18.4600 159.0000
18.4800 153.0000
18.5000 135.0000
18.5200 167.0000
18.5400 161.0000
18.5600 142.0000
18.5800 149.0000
18.6000 144.0000
18.6200 171.0000
18.6400 160.0000
18.6600 161.0000
18.6800 177.0000
18.7000 147.0000
18.7200 138.0000
18.7400 164.0000
18.7600 143.0000
18.7800 172.0000
18.8000 155.0000
18.8200 172.0000
18.8400 155.0000
18.8600 157.0000
18.8800 167.0000
18.9000 156.0000
18.9200 160.0000
18.9400 144.0000
18.9600 155.0000
18.9800 184.0000
19.0000 149.0000
19.0200 149.0000
19.0400 166.0000
19.0600 161.0000
19.0800 159.0000
19.1000 169.0000
19.1200 162.0000
19.1400 148.0000
19.1600 131.0000
19.1800 183.0000
19.2000 172.0000
19.2200 167.0000
19.2400 176.0000
19.2600 165.0000
19.2800 174.0000
19.3000 187.0000
19.3200 158.0000
19.3400 194.0000
19.3600 180.0000
19.3800 160.0000
19.4000 163.0000
19.4200 157.0000
19.4400 163.0000
19.4600 172.0000
19.4800 167.0000
19.5000 172.0000
19.5200 174.0000
19.5400 174.0000
19.5600 157.0000
19.5800 164.0000
19.6000 175.0000
19.6200 157.0000
19.6400 165.0000
19.6600 175.0000
19.6800 200.0000
19.7000 172.0000
19.7200 169.0000
19.7400 193.0000
19.7600 176.0000
19.7800 187.0000
19.8000 167.0000
19.8200 186.0000
19.8400 167.0000
19.8600 161.0000
19.8800 195.0000
19.9000 158.0000
19.9200 180.0000
19.9400 171.0000
19.9600 177.0000
19.9800 182.0000
20.0000 176.0000
20.0200 191.0000
20.0400 189.0000
20.0600 168.0000
20.0800 177.0000
20.1000 204.0000
20.1200 203.0000
20.1400 180.0000
20.1600 189.0000
20.1800 183.0000
20.2000 188.0000
20.2200 178.0000
20.2400 206.0000
20.2600 201.0000
20.2800 177.0000
20.3000 167.0000
20.3200 198.0000
20.3400 181.0000
20.3600 203.0000
20.3800 152.0000
20.4000 187.0000
20.4200 184.0000
20.4400 182.0000
20.4600 183.0000
20.4800 191.0000
20.5000 211.0000
20.5200 118.0000
20.5400 185.0000
20.5600 199.0000
20.5800 211.0000
20.6000 197.0000
20.6200 207.0000
20.6400 190.0000
20.6600 204.0000
20.6800 187.0000
20.7000 189.0000
20.7200 201.0000
20.7400 193.0000
20.7600 209.0000
20.7800 170.0000
20.8000 200.0000
20.8200 185.0000
20.8400 219.0000
20.8600 190.0000
20.8800 181.0000
20.9000 208.0000
20.9200 197.0000
20.9400 193.0000
20.9600 185.0000
20.9800 222.0000
21.0000 198.0000
21.0200 204.0000
21.0400 211.0000
21.0600 203.0000
21.0800 206.0000
21.1000 197.0000
21.1200 205.0000
21.1400 213.0000
21.1600 195.0000
21.1800 194.0000
21.2000 204.0000
21.2200 213.0000
21.2400 191.0000
21.2600 183.0000
21.2800 174.0000
21.3000 208.0000
21.3200 200.0000
21.3400 189.0000
21.3600 189.0000
21.3800 214.0000
21.4000 207.0000
21.4200 205.0000
21.4400 204.0000
21.4600 211.0000
21.4800 211.0000
21.5000 208.0000
21.5200 244.0000
21.5400 231.0000
21.5600 243.0000
21.5800 227.0000
21.6000 235.0000
21.6200 264.0000
21.6400 286.0000
21.6600 316.0000
21.6800 344.0000
21.7000 326.0000
21.7200 388.0000
21.7400 401.0000
21.7600 397.0000
21.7800 387.0000
21.8000 427.0000
21.8200 352.0000
21.8400 339.0000
21.8600 326.0000
21.8800 299.0000
21.9000 268.0000
21.9200 278.0000
21.9400 268.0000
21.9600 229.0000
21.9800 241.0000
22.0000 237.0000
22.0200 212.0000
22.0400 211.0000
22.0600 236.0000
22.0800 225.0000
22.1000 224.0000
22.1200 213.0000
22.1400 229.0000
22.1600 213.0000
22.1800 207.0000
22.2000 232.0000
22.2200 191.0000
22.2400 196.0000
22.2600 199.0000
22.2800 191.0000
22.3000 219.0000
22.3200 223.0000
22.3400 236.0000
22.3600 211.0000
22.3800 190.0000
22.4000 207.0000
22.4200 224.0000
22.4400 238.0000
22.4600 216.0000
22.4800 197.0000
22.5000 242.0000
22.5200 208.0000
22.5400 204.0000
22.5600 207.0000
22.5800 211.0000
22.6000 228.0000
22.6200 213.0000
22.6400 222.0000
22.6600 196.0000
22.6800 217.0000
22.7000 216.0000
22.7200 225.0000
22.7400 222.0000
22.7600 182.0000
22.7800 227.0000
22.8000 230.0000
22.8200 224.0000
22.8400 202.0000
22.8600 250.0000
22.8800 189.0000
22.9000 219.0000
22.9200 205.0000
22.9400 207.0000
22.9600 182.0000
22.9800 203.0000
23.0000 217.0000
23.0200 197.0000
23.0400 213.0000
23.0600 209.0000
23.0800 243.0000
23.1000 221.0000
23.1200 226.0000
23.1400 238.0000
23.1600 219.0000
23.1800 245.0000
23.2000 229.0000
23.2200 213.0000
23.2400 229.0000
23.2600 237.0000
23.2800 224.0000
23.3000 239.0000
23.3200 211.0000
23.3400 221.0000
23.3600 223.0000
23.3800 232.0000
23.4000 217.0000
23.4200 202.0000
23.4400 217.0000
23.4600 197.0000
23.4800 219.0000
23.5000 236.0000
23.5200 220.0000
23.5400 227.0000
23.5600 221.0000
23.5800 204.0000
23.6000 229.0000
23.6200 230.0000
23.6400 242.0000
23.6600 210.0000
23.6800 223.0000
23.7000 231.0000
23.7200 227.0000
23.7400 208.0000
23.7600 255.0000
23.7800 249.0000
23.8000 256.0000
23.8200 244.0000
23.8400 245.0000
23.8600 232.0000
23.8800 235.0000
23.9000 224.0000
23.9200 222.0000
23.9400 231.0000
23.9600 219.0000
23.9800 233.0000
24.0000 236.0000
24.0200 220.0000
24.0400 242.0000
24.0600 219.0000
24.0800 220.0000
24.1000 223.0000
24.1200 210.0000
24.1400 275.0000
24.1600 214.0000
24.1800 216.0000
24.2000 191.0000
24.2200 233.0000
24.2400 212.0000
24.2600 245.0000
24.2800 193.0000
24.3000 219.0000
24.3200 220.0000
24.3400 213.0000
24.3600 230.0000
24.3800 243.0000
24.4000 214.0000
24.4200 242.0000
24.4400 254.0000
24.4600 224.0000
24.4800 264.0000
24.5000 251.0000
24.5200 246.0000
24.5400 260.0000
24.5600 243.0000
24.5800 214.0000
24.6000 271.0000
24.6200 249.0000
24.6400 238.0000
24.6600 258.0000
24.6800 231.0000
24.7000 234.0000
24.7200 253.0000
24.7400 251.0000
24.7600 266.0000
24.7800 242.0000
24.8000 244.0000
24.8200 251.0000
24.8400 259.0000
24.8600 213.0000
24.8800 282.0000
24.9000 270.0000
24.9200 255.0000
24.9400 270.0000
24.9600 283.0000
24.9800 306.0000
25.0000 296.0000
25.0200 272.0000
25.0400 287.0000
25.0600 311.0000
25.0800 334.0000
25.1000 369.0000
25.1200 438.0000
25.1400 423.0000
25.1600 461.0000
25.1800 447.0000
25.2000 481.0000
25.2200 422.0000
25.2400 435.0000
25.2600 394.0000
25.2800 367.0000
25.3000 338.0000
25.3200 340.0000
25.3400 354.0000
25.3600 316.0000
25.3800 291.0000
25.4000 301.0000
25.4200 289.0000
25.4400 310.0000
25.4600 261.0000
25.4800 285.0000
25.5000 273.0000
25.5200 281.0000
25.5400 295.0000
25.5600 291.0000
25.5800 307.0000
25.6000 278.0000
25.6200 317.0000
25.6400 289.0000
25.6600 308.0000
25.6800 344.0000
25.7000 374.0000
25.7200 404.0000
25.7400 393.0000
25.7600 457.0000
25.7800 474.0000
25.8000 510.0000
25.8200 654.0000
25.8400 695.0000
25.8600 834.0000
25.8800 954.0000
25.9000 1071.0000
25.9200 1148.0000
25.9400 1319.0000
25.9600 1320.0000
25.9800 1310.0000
26.0000 1217.0000
26.0200 1112.0000
26.0400 978.0000
26.0600 798.0000
26.0800 681.0000
26.1000 534.0000
26.1200 489.0000
26.1400 400.0000
26.1600 362.0000
26.1800 338.0000
26.2000 268.0000
26.2200 302.0000
26.2400 266.0000
26.2600 240.0000
26.2800 237.0000
26.3000 231.0000
26.3200 239.0000
26.3400 252.0000
26.3600 229.0000
26.3800 221.0000
26.4000 272.0000
26.4200 206.0000
26.4400 226.0000
26.4600 212.0000
26.4800 191.0000
26.5000 217.0000
26.5200 238.0000
26.5400 188.0000
26.5600 236.0000
26.5800 203.0000
26.6000 218.0000
26.6200 212.0000
26.6400 211.0000
26.6600 225.0000
26.6800 209.0000
26.7000 189.0000
26.7200 203.0000
26.7400 204.0000
26.7600 239.0000
26.7800 228.0000
26.8000 224.0000
26.8200 219.0000
26.8400 230.0000
26.8600 211.0000
26.8800 206.0000
26.9000 222.0000
26.9200 195.0000
26.9400 238.0000
26.9600 235.0000
26.9800 250.0000
27.0000 265.0000
27.0200 227.0000
27.0400 240.0000
27.0600 231.0000
27.0800 233.0000
27.1000 223.0000
27.1200 237.0000
27.1400 243.0000
27.1600 208.0000
27.1800 191.0000
27.2000 208.0000
27.2200 214.0000
27.2400 216.0000
27.2600 218.0000
27.2800 192.0000
27.3000 221.0000
27.3200 205.0000
27.3400 215.0000
27.3600 212.0000
27.3800 214.0000
27.4000 213.0000
27.4200 153.0000
27.4400 217.0000
27.4600 238.0000
27.4800 193.0000
27.5000 194.0000
27.5200 209.0000
27.5400 201.0000
27.5600 215.0000
27.5800 221.0000
27.6000 184.0000
27.6200 240.0000
27.6400 204.0000
27.6600 232.0000
27.6800 193.0000
27.7000 220.0000
27.7200 205.0000
27.7400 176.0000
27.7600 203.0000
27.7800 191.0000
27.8000 186.0000
27.8200 212.0000
27.8400 184.0000
27.8600 204.0000
27.8800 187.0000
27.9000 194.0000
27.9200 183.0000
27.9400 193.0000
27.9600 190.0000
27.9800 208.0000
28.0000 225.0000
28.0200 196.0000
28.0400 188.0000
28.0600 220.0000
28.0800 213.0000
28.1000 193.0000
28.1200 195.0000
28.1400 216.0000
28.1600 202.0000
28.1800 233.0000
28.2000 199.0000
28.2200 205.0000
28.2400 216.0000
28.2600 177.0000
28.2800 236.0000
28.3000 210.0000
28.3200 208.0000
28.3400 204.0000
28.3600 220.0000
28.3800 207.0000
28.4000 213.0000
28.4200 196.0000
28.4400 173.0000
28.4600 184.0000
28.4800 178.0000
28.5000 190.0000
28.5200 208.0000
28.5400 190.0000
28.5600 200.0000
28.5800 183.0000
28.6000 220.0000
28.6200 186.0000
28.6400 204.0000
28.6600 199.0000
28.6800 163.0000
28.7000 182.0000
28.7200 205.0000
28.7400 211.0000
28.7600 184.0000
28.7800 196.0000
28.8000 201.0000
28.8200 196.0000
28.8400 175.0000
28.8600 220.0000
28.8800 207.0000
28.9000 200.0000
28.9200 186.0000
28.9400 183.0000
28.9600 208.0000
28.9800 201.0000
29.0000 226.0000
29.0200 219.0000
29.0400 204.0000
29.0600 194.0000
29.0800 216.0000
29.1000 213.0000
29.1200 197.0000
29.1400 183.0000
29.1600 189.0000
29.1800 178.0000
29.2000 203.0000
29.2200 176.0000
29.2400 195.0000
29.2600 194.0000
29.2800 170.0000
29.3000 183.0000
29.3200 179.0000
29.3400 201.0000
29.3600 197.0000
29.3800 181.0000
29.4000 212.0000
29.4200 186.0000
29.4400 184.0000
29.4600 183.0000
29.4800 193.0000
29.5000 204.0000
29.5200 200.0000
29.5400 179.0000
29.5600 164.0000
29.5800 198.0000
29.6000 196.0000
29.6200 179.0000
29.6400 186.0000
29.6600 171.0000
29.6800 171.0000
29.7000 173.0000
29.7200 175.0000
29.7400 179.0000
29.7600 195.0000
29.7800 189.0000
29.8000 179.0000
29.8200 198.0000
29.8400 186.0000
29.8600 177.0000
29.8800 162.0000
29.9000 198.0000
29.9200 187.0000
29.9400 159.0000
29.9600 166.0000
29.9800 184.0000
30.0000 154.0000
30.0200 194.0000
30.0400 185.0000
30.0600 177.0000
30.0800 176.0000
30.1000 204.0000
30.1200 186.0000
30.1400 183.0000
30.1600 173.0000
30.1800 174.0000
30.2000 169.0000
30.2200 176.0000
30.2400 177.0000
30.2600 168.0000
30.2800 176.0000
30.3000 187.0000
30.3200 190.0000
30.3400 185.0000
30.3600 171.0000
30.3800 178.0000
30.4000 167.0000
30.4200 194.0000
30.4400 180.0000
30.4600 171.0000
30.4800 187.0000
30.5000 211.0000
30.5200 186.0000
30.5400 186.0000
30.5600 191.0000
30.5800 187.0000
30.6000 189.0000
30.6200 212.0000
30.6400 197.0000
30.6600 232.0000
30.6800 228.0000
30.7000 196.0000
30.7200 227.0000
30.7400 184.0000
30.7600 217.0000
30.7800 195.0000
30.8000 167.0000
30.8200 194.0000
30.8400 208.0000
30.8600 200.0000
30.8800 184.0000
30.9000 180.0000
30.9200 173.0000
30.9400 181.0000
30.9600 190.0000
30.9800 195.0000
31.0000 192.0000
31.0200 200.0000
31.0400 218.0000
31.0600 231.0000
31.0800 230.0000
31.1000 279.0000
31.1200 302.0000
31.1400 293.0000
31.1600 303.0000
31.1800 321.0000
31.2000 357.0000
31.2200 345.0000
31.2400 318.0000
31.2600 334.0000
31.2800 271.0000
31.3000 303.0000
31.3200 237.0000
31.3400 227.0000
31.3600 215.0000
31.3800 199.0000
31.4000 183.0000
31.4200 174.0000
31.4400 183.0000
31.4600 181.0000
31.4800 172.0000
31.5000 182.0000
31.5200 169.0000
31.5400 176.0000
31.5600 164.0000
31.5800 173.0000
31.6000 166.0000
31.6200 152.0000
31.6400 172.0000
31.6600 173.0000
31.6800 167.0000
31.7000 170.0000
31.7200 171.0000
31.7400 141.0000
31.7600 160.0000
31.7800 152.0000
31.8000 172.0000
31.8200 168.0000
31.8400 168.0000
31.8600 164.0000
31.8800 139.0000
31.9000 148.0000
31.9200 170.0000
31.9400 159.0000
31.9600 176.0000
31.9800 158.0000
32.0000 152.0000
32.0200 171.0000
32.0400 164.0000
32.0600 161.0000
32.0800 161.0000
32.1000 135.0000
32.1200 180.0000
32.1400 132.0000
32.1600 140.0000
32.1800 163.0000
32.2000 173.0000
32.2200 164.0000
32.2400 141.0000
32.2600 168.0000
32.2800 157.0000
32.3000 161.0000
32.3200 157.0000
32.3400 160.0000
32.3600 163.0000
32.3800 160.0000
32.4000 171.0000
32.4200 129.0000
32.4400 145.0000
32.4600 178.0000
32.4800 159.0000
32.5000 163.0000
32.5200 150.0000
32.5400 148.0000
32.5600 165.0000
32.5800 153.0000
32.6000 145.0000
32.6200 138.0000
32.6400 144.0000
32.6600 149.0000
32.6800 147.0000
32.7000 161.0000
32.7200 155.0000
32.7400 160.0000
32.7600 159.0000
32.7800 143.0000
32.8000 146.0000
32.8200 145.0000
32.8400 168.0000
32.8600 142.0000
32.8800 153.0000
32.9000 158.0000
32.9200 160.0000
32.9400 117.0000
32.9600 157.0000
32.9800 142.0000
33.0000 152.0000
33.0200 133.0000
33.0400 139.0000
33.0600 138.0000
33.0800 160.0000
33.1000 135.0000
33.1200 136.0000
33.1400 153.0000
33.1600 181.0000
33.1800 174.0000
33.2000 145.0000
33.2200 141.0000
33.2400 146.0000
33.2600 157.0000
33.2800 147.0000
33.3000 140.0000
33.3200 148.0000
33.3400 141.0000
33.3600 152.0000
33.3800 147.0000
33.4000 171.0000
33.4200 144.0000
33.4400 135.0000
33.4600 137.0000
33.4800 140.0000
33.5000 117.0000
33.5200 158.0000
33.5400 153.0000
33.5600 141.0000
33.5800 167.0000
33.6000 158.0000
33.6200 149.0000
33.6400 166.0000
33.6600 148.0000
33.6800 146.0000
33.7000 132.0000
33.7200 160.0000
33.7400 148.0000
33.7600 160.0000
33.7800 150.0000
33.8000 153.0000
33.8200 161.0000
33.8400 141.0000
33.8600 149.0000
33.8800 140.0000
33.9000 127.0000
33.9200 137.0000
33.9400 153.0000
33.9600 161.0000
33.9800 137.0000
34.0000 131.0000
34.0200 136.0000
34.0400 150.0000
34.0600 123.0000
34.0800 151.0000
34.1000 132.0000
34.1200 148.0000
34.1400 134.0000
34.1600 130.0000
34.1800 168.0000
34.2000 125.0000
34.2200 128.0000
34.2400 160.0000
34.2600 134.0000
34.2800 134.0000
34.3000 150.0000
34.3200 136.0000
34.3400 136.0000
34.3600 153.0000
34.3800 162.0000
34.4000 136.0000
34.4200 138.0000
34.4400 160.0000
34.4600 167.0000
34.4800 145.0000
34.5000 154.0000
34.5200 146.0000
34.5400 189.0000
34.5600 138.0000
34.5800 154.0000
34.6000 132.0000
34.6200 143.0000
34.6400 146.0000
34.6600 145.0000
34.6800 144.0000
34.7000 125.0000
34.7200 146.0000
34.7400 153.0000
34.7600 127.0000
34.7800 124.0000
34.8000 125.0000
34.8200 133.0000
34.8400 163.0000
34.8600 119.0000
34.8800 116.0000
34.9000 104.0000
34.9200 142.0000
34.9400 124.0000
34.9600 138.0000
34.9800 139.0000
35.0000 117.0000
35.0200 108.0000
35.0400 120.0000
35.0600 123.0000
35.0800 129.0000
35.1000 144.0000
35.1200 112.0000
35.1400 120.0000
35.1600 112.0000
35.1800 119.0000
35.2000 119.0000
35.2200 127.0000
35.2400 134.0000
35.2600 125.0000
35.2800 122.0000
35.3000 142.0000
35.3200 155.0000
35.3400 122.0000
35.3600 155.0000
35.3800 120.0000
35.4000 120.0000
35.4200 122.0000
35.4400 129.0000
35.4600 117.0000
35.4800 118.0000
35.5000 133.0000
35.5200 114.0000
35.5400 102.0000
35.5600 107.0000
35.5800 132.0000
35.6000 130.0000
35.6200 115.0000
35.6400 117.0000
35.6600 131.0000
35.6800 123.0000
35.7000 135.0000
35.7200 140.0000
35.7400 131.0000
35.7600 125.0000
35.7800 141.0000
35.8000 109.0000
35.8200 136.0000
35.8400 115.0000
35.8600 118.0000
35.8800 135.0000
35.9000 138.0000
35.9200 126.0000
35.9400 138.0000
35.9600 160.0000
35.9800 117.0000
36.0000 124.0000
36.0200 148.0000
36.0400 132.0000
36.0600 129.0000
36.0800 131.0000
36.1000 120.0000
36.1200 131.0000
36.1400 105.0000
36.1600 113.0000
36.1800 115.0000
36.2000 102.0000
36.2200 111.0000
36.2400 124.0000
36.2600 105.0000
36.2800 106.0000
36.3000 127.0000
36.3200 115.0000
36.3400 117.0000
36.3600 116.0000
36.3800 108.0000
36.4000 129.0000
36.4200 118.0000
36.4400 97.0000
36.4600 99.0000
36.4800 94.0000
36.5000 107.0000
36.5200 95.0000
36.5400 96.0000
36.5600 91.0000
36.5800 106.0000
36.6000 115.0000
36.6200 89.0000
36.6400 103.0000
36.6600 112.0000
36.6800 107.0000
36.7000 117.0000
36.7200 104.0000
36.7400 99.0000
36.7600 122.0000
36.7800 115.0000
36.8000 111.0000
36.8200 94.0000
36.8400 109.0000
36.8600 102.0000
36.8800 119.0000
36.9000 109.0000
36.9200 108.0000
36.9400 112.0000
36.9600 115.0000
36.9800 115.0000
37.0000 101.0000
37.0200 89.0000
37.0400 111.0000
37.0600 111.0000
37.0800 110.0000
37.1000 116.0000
37.1200 111.0000
37.1400 103.0000
37.1600 85.0000
37.1800 102.0000
37.2000 106.0000
37.2200 102.0000
37.2400 93.0000
37.2600 112.0000
37.2800 105.0000
37.3000 110.0000
37.3200 111.0000
37.3400 110.0000
37.3600 132.0000
37.3800 113.0000
37.4000 129.0000
37.4200 98.0000
37.4400 102.0000
37.4600 97.0000
37.4800 109.0000
37.5000 110.0000
37.5200 107.0000
37.5400 104.0000
37.5600 116.0000
37.5800 92.0000
37.6000 104.0000
37.6200 104.0000
37.6400 102.0000
37.6600 103.0000
37.6800 100.0000
37.7000 102.0000
37.7200 89.0000
37.7400 108.0000
37.7600 99.0000
37.7800 102.0000
37.8000 89.0000
37.8200 94.0000
37.8400 90.0000
37.8600 111.0000
37.8800 103.0000
37.9000 102.0000
37.9200 115.0000
37.9400 111.0000
37.9600 96.0000
37.9800 108.0000
38.0000 99.0000
38.0200 94.0000
38.0400 106.0000
38.0600 105.0000
38.0800 102.0000
38.1000 96.0000
38.1200 103.0000
38.1400 85.0000
38.1600 126.0000
38.1800 79.0000
38.2000 83.0000
38.2200 106.0000
38.2400 89.0000
38.2600 100.0000
38.2800 97.0000
38.3000 101.0000
38.3200 103.0000
38.3400 86.0000
38.3600 91.0000
38.3800 115.0000
38.4000 103.0000
38.4200 104.0000
38.4400 98.0000
38.4600 106.0000
38.4800 99.0000
38.5000 118.0000
38.5200 103.0000
38.5400 100.0000
38.5600 124.0000
38.5800 106.0000
38.6000 108.0000
38.6200 104.0000
38.6400 102.0000
38.6600 116.0000
38.6800 97.0000
38.7000 94.0000
38.7200 107.0000
38.7400 84.0000
38.7600 96.0000
38.7800 103.0000
38.8000 97.0000
38.8200 93.0000
38.8400 72.0000
38.8600 83.0000
38.8800 89.0000
38.9000 89.0000
38.9200 88.0000
38.9400 77.0000
38.9600 89.0000
38.9800 98.0000
39.0000 80.0000
39.0200 73.0000
39.0400 110.0000
39.0600 103.0000
39.0800 95.0000
39.1000 88.0000
39.1200 115.0000
39.1400 106.0000
39.1600 94.0000
39.1800 95.0000
39.2000 116.0000
39.2200 89.0000
39.2400 91.0000
39.2600 83.0000
39.2800 94.0000
39.3000 85.0000
39.3200 109.0000
39.3400 105.0000
39.3600 87.0000
39.3800 102.0000
39.4000 108.0000
39.4200 92.0000
39.4400 107.0000
39.4600 98.0000
39.4800 95.0000
39.5000 83.0000
39.5200 95.0000
39.5400 91.0000
39.5600 98.0000
39.5800 100.0000
39.6000 99.0000
39.6200 89.0000
39.6400 101.0000
39.6600 93.0000
39.6800 101.0000
39.7000 77.0000
39.7200 92.0000
39.7400 76.0000
39.7600 121.0000
39.7800 82.0000
39.8000 96.0000
39.8200 107.0000
39.8400 107.0000
39.8600 97.0000
39.8800 101.0000
39.9000 98.0000
39.9200 74.0000
39.9400 88.0000
39.9600 85.0000
39.9800 89.0000
40.0000 86.0000
40.0200 90.0000
40.0400 92.0000
40.0600 81.0000
40.0800 105.0000
40.1000 84.0000
40.1200 93.0000
40.1400 96.0000
40.1600 88.0000
40.1800 86.0000
40.2000 98.0000
40.2200 91.0000
40.2400 83.0000
40.2600 75.0000
40.2800 83.0000
40.3000 84.0000
40.3200 94.0000
40.3400 103.0000
40.3600 87.0000
40.3800 101.0000
40.4000 86.0000
40.4200 95.0000
40.4400 96.0000
40.4600 101.0000
40.4800 71.0000
40.5000 86.0000
40.5200 95.0000
40.5400 92.0000
40.5600 107.0000
40.5800 92.0000
40.6000 109.0000
40.6200 72.0000
40.6400 110.0000
40.6600 90.0000
40.6800 88.0000
40.7000 100.0000
40.7200 94.0000
40.7400 89.0000
40.7600 88.0000
40.7800 97.0000
40.8000 91.0000
40.8200 79.0000
40.8400 93.0000
40.8600 79.0000
40.8800 74.0000
40.9000 86.0000
40.9200 89.0000
40.9400 100.0000
40.9600 97.0000
40.9800 78.0000
41.0000 86.0000
41.0200 100.0000
41.0400 76.0000
41.0600 83.0000
41.0800 94.0000
41.1000 87.0000
41.1200 92.0000
41.1400 82.0000
41.1600 100.0000
41.1800 101.0000
41.2000 99.0000
41.2200 99.0000
41.2400 98.0000
41.2600 83.0000
41.2800 110.0000
41.3000 82.0000
41.3200 91.0000
41.3400 88.0000
41.3600 95.0000
41.3800 91.0000
41.4000 97.0000
41.4200 93.0000
41.4400 83.0000
41.4600 92.0000
41.4800 86.0000
41.5000 76.0000
41.5200 96.0000
41.5400 85.0000
41.5600 102.0000
41.5800 103.0000
41.6000 93.0000
41.6200 102.0000
41.6400 101.0000
41.6600 84.0000
41.6800 87.0000
41.7000 88.0000
41.7200 111.0000
41.7400 85.0000
41.7600 99.0000
41.7800 88.0000
41.8000 105.0000
41.8200 82.0000
41.8400 89.0000
41.8600 94.0000
41.8800 81.0000
41.9000 103.0000
41.9200 91.0000
41.9400 89.0000
41.9600 94.0000
41.9800 80.0000
42.0000 82.0000
42.0200 98.0000
42.0400 84.0000
42.0600 96.0000
42.0800 88.0000
42.1000 99.0000
42.1200 93.0000
42.1400 96.0000
42.1600 87.0000
42.1800 77.0000
42.2000 97.0000
42.2200 80.0000
42.2400 97.0000
42.2600 92.0000
42.2800 103.0000
42.3000 92.0000
42.3200 98.0000
42.3400 98.0000
42.3600 105.0000
42.3800 104.0000
42.4000 102.0000
42.4200 111.0000
42.4400 119.0000
42.4600 127.0000
42.4800 74.0000
42.5000 97.0000
42.5200 99.0000
42.5400 83.0000
42.5600 105.0000
42.5800 91.0000
42.6000 85.0000
42.6200 92.0000
42.6400 112.0000
42.6600 116.0000
42.6800 90.0000
42.7000 89.0000
42.7200 83.0000
42.7400 81.0000
42.7600 110.0000
42.7800 80.0000
42.8000 79.0000
42.8200 89.0000
42.8400 73.0000
42.8600 87.0000
42.8800 91.0000
42.9000 98.0000
42.9200 79.0000
42.9400 91.0000
42.9600 82.0000
42.9800 86.0000
43.0000 79.0000
43.0200 93.0000
43.0400 92.0000
43.0600 92.0000
43.0800 81.0000
43.1000 97.0000
43.1200 80.0000
43.1400 85.0000
43.1600 99.0000
43.1800 86.0000
43.2000 84.0000
43.2200 96.0000
43.2400 89.0000
43.2600 95.0000
43.2800 99.0000
43.3000 73.0000
43.3200 91.0000
43.3400 93.0000
43.3600 110.0000
43.3800 98.0000
43.4000 91.0000
43.4200 89.0000
43.4400 83.0000
43.4600 97.0000
43.4800 102.0000
43.5000 99.0000
43.5200 95.0000
43.5400 94.0000
43.5600 92.0000
43.5800 101.0000
43.6000 84.0000
43.6200 68.0000
43.6400 103.0000
43.6600 91.0000
43.6800 106.0000
43.7000 80.0000
43.7200 100.0000
43.7400 107.0000
43.7600 106.0000
43.7800 101.0000
43.8000 95.0000
43.8200 125.0000
43.8400 127.0000
43.8600 103.0000
43.8800 115.0000
43.9000 78.0000
43.9200 126.0000
43.9400 101.0000
43.9600 116.0000
43.9800 135.0000
44.0000 116.0000
44.0200 103.0000
44.0400 125.0000
44.0600 129.0000
44.0800 105.0000
44.1000 98.0000
44.1200 124.0000
44.1400 113.0000
44.1600 122.0000
44.1800 102.0000
44.2000 98.0000
44.2200 100.0000
44.2400 131.0000
44.2600 108.0000
44.2800 121.0000
44.3000 130.0000
44.3200 137.0000
44.3400 129.0000
44.3600 149.0000
44.3800 137.0000
44.4000 143.0000
44.4200 131.0000
44.4400 127.0000
44.4600 128.0000
44.4800 134.0000
44.5000 115.0000
44.5200 115.0000
44.5400 106.0000
44.5600 97.0000
44.5800 97.0000
44.6000 118.0000
44.6200 105.0000
44.6400 99.0000
44.6600 90.0000
44.6800 80.0000
44.7000 101.0000
44.7200 84.0000
44.7400 104.0000
44.7600 70.0000
44.7800 100.0000
44.8000 83.0000
44.8200 91.0000
44.8400 76.0000
44.8600 88.0000
44.8800 75.0000
44.9000 94.0000
44.9200 97.0000
44.9400 108.0000
44.9600 105.0000
44.9800 89.0000
45.0000 88.0000
45.0200 82.0000
45.0400 91.0000
45.0600 93.0000
45.0800 94.0000
45.1000 90.0000
45.1200 85.0000
45.1400 80.0000
45.1600 82.0000
45.1800 91.0000
45.2000 95.0000
45.2200 96.0000
45.2400 89.0000
45.2600 92.0000
45.2800 84.0000
45.3000 85.0000
45.3200 90.0000
45.3400 89.0000
45.3600 74.0000
45.3800 94.0000
45.4000 79.0000
45.4200 75.0000
45.4400 84.0000
45.4600 83.0000
45.4800 94.0000
45.5000 80.0000
45.5200 97.0000
45.5400 95.0000
45.5600 78.0000
45.5800 84.0000
45.6000 90.0000
45.6200 98.0000
45.6400 94.0000
45.6600 94.0000
45.6800 99.0000
45.7000 93.0000
45.7200 94.0000
45.7400 92.0000
45.7600 81.0000
45.7800 94.0000
45.8000 102.0000
45.8200 98.0000
45.8400 107.0000
45.8600 100.0000
45.8800 85.0000
45.9000 101.0000
45.9200 98.0000
45.9400 91.0000
45.9600 100.0000
45.9800 112.0000
46.0000 105.0000
46.0200 109.0000
46.0400 105.0000
46.0600 103.0000
46.0800 95.0000
46.1000 112.0000
46.1200 100.0000
46.1400 135.0000
46.1600 112.0000
46.1800 104.0000
46.2000 101.0000
46.2200 103.0000
46.2400 108.0000
46.2600 106.0000
46.2800 103.0000
46.3000 97.0000
46.3200 95.0000
46.3400 98.0000
46.3600 86.0000
46.3800 114.0000
46.4000 107.0000
46.4200 95.0000
46.4400 100.0000
46.4600 98.0000
46.4800 96.0000
46.5000 106.0000
46.5200 91.0000
46.5400 105.0000
46.5600 92.0000
46.5800 107.0000
46.6000 104.0000
46.6200 99.0000
46.6400 97.0000
46.6600 87.0000
46.6800 76.0000
46.7000 87.0000
46.7200 91.0000
46.7400 73.0000
46.7600 94.0000
46.7800 80.0000
46.8000 86.0000
46.8200 86.0000
46.8400 85.0000
46.8600 75.0000
46.8800 89.0000
46.9000 81.0000
46.9200 86.0000
46.9400 86.0000
46.9600 74.0000
46.9800 94.0000
47.0000 81.0000
47.0200 78.0000
47.0400 87.0000
47.0600 90.0000
47.0800 86.0000
47.1000 95.0000
47.1200 75.0000
47.1400 101.0000
47.1600 78.0000
47.1800 89.0000
47.2000 90.0000
47.2200 98.0000
47.2400 84.0000
47.2600 90.0000
47.2800 100.0000
47.3000 92.0000
47.3200 65.0000
47.3400 88.0000
47.3600 78.0000
47.3800 90.0000
47.4000 73.0000
47.4200 74.0000
47.4400 96.0000
47.4600 99.0000
47.4800 82.0000
47.5000 81.0000
47.5200 79.0000
47.5400 93.0000
47.5600 82.0000
47.5800 75.0000
47.6000 75.0000
47.6200 90.0000
47.6400 82.0000
47.6600 74.0000
47.6800 92.0000
47.7000 80.0000
47.7200 80.0000
47.7400 91.0000
47.7600 74.0000
47.7800 98.0000
47.8000 75.0000
47.8200 82.0000
47.8400 86.0000
47.8600 84.0000
47.8800 85.0000
47.9000 84.0000
47.9200 71.0000
47.9400 79.0000
47.9600 77.0000
47.9800 67.0000
48.0000 83.0000
48.0200 83.0000
48.0400 80.0000
48.0600 96.0000
48.0800 77.0000
48.1000 71.0000
48.1200 74.0000
48.1400 83.0000
48.1600 106.0000
48.1800 92.0000
48.2000 85.0000
48.2200 73.0000
48.2400 75.0000
48.2600 77.0000
48.2800 71.0000
48.3000 88.0000
48.3200 73.0000
48.3400 85.0000
48.3600 80.0000
48.3800 87.0000
48.4000 85.0000
48.4200 90.0000
48.4400 90.0000
48.4600 79.0000
48.4800 96.0000
48.5000 72.0000
48.5200 90.0000
48.5400 80.0000
48.5600 82.0000
48.5800 89.0000
48.6000 79.0000
48.6200 87.0000
48.6400 84.0000
48.6600 90.0000
48.6800 91.0000
48.7000 79.0000
48.7200 93.0000
48.7400 100.0000
48.7600 89.0000
48.7800 103.0000
48.8000 97.0000
48.8200 109.0000
48.8400 113.0000
48.8600 116.0000
48.8800 135.0000
48.9000 125.0000
48.9200 129.0000
48.9400 126.0000
48.9600 120.0000
48.9800 113.0000
49.0000 137.0000
49.0200 116.0000
49.0400 127.0000
49.0600 126.0000
49.0800 95.0000
49.1000 108.0000
49.1200 99.0000
49.1400 97.0000
49.1600 78.0000
49.1800 75.0000
49.2000 81.0000
49.2200 101.0000
49.2400 104.0000
49.2600 108.0000
49.2800 101.0000
49.3000 107.0000
49.3200 87.0000
49.3400 100.0000
49.3600 90.0000
49.3800 102.0000
49.4000 95.0000
49.4200 81.0000
49.4400 100.0000
49.4600 102.0000
49.4800 96.0000
49.5000 88.0000
49.5200 87.0000
49.5400 91.0000
49.5600 74.0000
49.5800 95.0000
49.6000 90.0000
49.6200 82.0000
49.6400 76.0000
49.6600 71.0000
49.6800 73.0000
49.7000 90.0000
49.7200 86.0000
49.7400 81.0000
49.7600 92.0000
49.7800 84.0000
49.8000 75.0000
49.8200 85.0000
49.8400 75.0000
49.8600 79.0000
49.8800 87.0000
49.9000 90.0000
49.9200 78.0000
49.9400 82.0000
49.9600 53.0000
49.9800 90.0000
50.0000 81.0000
50.0200 85.0000
50.0400 90.0000
50.0600 75.0000
50.0800 83.0000
50.1000 76.0000
50.1200 81.0000
50.1400 75.0000
50.1600 71.0000
50.1800 75.0000
50.2000 77.0000
50.2200 79.0000
50.2400 66.0000
50.2600 71.0000
50.2800 91.0000
50.3000 89.0000
50.3200 76.0000
50.3400 69.0000
50.3600 79.0000
50.3800 72.0000
50.4000 62.0000
50.4200 63.0000
50.4400 80.0000
50.4600 66.0000
50.4800 71.0000
50.5000 82.0000
50.5200 72.0000
50.5400 89.0000
50.5600 81.0000
50.5800 78.0000
50.6000 83.0000
50.6200 82.0000
50.6400 67.0000
50.6600 88.0000
50.6800 77.0000
50.7000 71.0000
50.7200 67.0000
50.7400 77.0000
50.7600 85.0000
50.7800 77.0000
50.8000 76.0000
50.8200 72.0000
50.8400 69.0000
50.8600 72.0000
50.8800 80.0000
50.9000 76.0000
50.9200 77.0000
50.9400 87.0000
50.9600 79.0000
50.9800 80.0000
51.0000 84.0000
51.0200 82.0000
51.0400 70.0000
51.0600 71.0000
51.0800 69.0000
51.1000 92.0000
51.1200 87.0000
51.1400 88.0000
51.1600 69.0000
51.1800 75.0000
51.2000 73.0000
51.2200 92.0000
51.2400 77.0000
51.2600 78.0000
51.2800 76.0000
51.3000 87.0000
51.3200 86.0000
51.3400 90.0000
51.3600 95.0000
51.3800 84.0000
51.4000 79.0000
51.4200 66.0000
51.4400 68.0000
51.4600 77.0000
51.4800 87.0000
51.5000 79.0000
51.5200 85.0000
51.5400 83.0000
51.5600 92.0000
51.5800 99.0000
51.6000 95.0000
51.6200 89.0000
51.6400 74.0000
51.6600 79.0000
51.6800 93.0000
51.7000 78.0000
51.7200 78.0000
51.7400 75.0000
51.7600 79.0000
51.7800 82.0000
51.8000 80.0000
51.8200 77.0000
51.8400 57.0000
51.8600 71.0000
51.8800 71.0000
51.9000 88.0000
51.9200 71.0000
51.9400 105.0000
51.9600 72.0000
51.9800 77.0000
52.0000 73.0000
52.0200 71.0000
52.0400 75.0000
52.0600 96.0000
52.0800 97.0000
52.1000 78.0000
52.1200 78.0000
52.1400 94.0000
52.1600 75.0000
52.1800 89.0000
52.2000 64.0000
52.2200 90.0000
52.2400 69.0000
52.2600 97.0000
52.2800 95.0000
52.3000 89.0000
52.3200 87.0000
52.3400 57.0000
52.3600 76.0000
52.3800 87.0000
52.4000 66.0000
52.4200 65.0000
52.4400 65.0000
52.4600 81.0000
52.4800 62.0000
52.5000 79.0000
52.5200 73.0000
52.5400 73.0000
52.5600 60.0000
52.5800 74.0000
52.6000 61.0000
52.6200 83.0000
52.6400 90.0000
52.6600 67.0000
52.6800 61.0000
52.7000 96.0000
52.7200 97.0000
52.7400 101.0000
52.7600 78.0000
52.7800 77.0000
52.8000 68.0000
52.8200 75.0000
52.8400 66.0000
52.8600 78.0000
52.8800 81.0000
52.9000 86.0000
52.9200 66.0000
52.9400 67.0000
52.9600 87.0000
52.9800 66.0000
53.0000 82.0000
53.0200 79.0000
53.0400 80.0000
53.0600 87.0000
53.0800 81.0000
53.1000 89.0000
53.1200 78.0000
53.1400 70.0000
53.1600 78.0000
53.1800 88.0000
53.2000 78.0000
53.2200 95.0000
53.2400 89.0000
53.2600 83.0000
53.2800 107.0000
53.3000 82.0000
53.3200 94.0000
53.3400 111.0000
53.3600 98.0000
53.3800 89.0000
53.4000 108.0000
53.4200 94.0000
53.4400 99.0000
53.4600 108.0000
53.4800 113.0000
53.5000 96.0000
53.5200 112.0000
53.5400 104.0000
53.5600 82.0000
53.5800 92.0000
53.6000 87.0000
53.6200 70.0000
53.6400 94.0000
53.6600 75.0000
53.6800 82.0000
53.7000 70.0000
53.7200 81.0000
53.7400 69.0000
53.7600 71.0000
53.7800 87.0000
53.8000 101.0000
53.8200 85.0000
53.8400 90.0000
53.8600 88.0000
53.8800 79.0000
53.9000 72.0000
53.9200 83.0000
53.9400 64.0000
53.9600 103.0000
53.9800 65.0000
54.0000 92.0000
54.0200 71.0000
54.0400 85.0000
54.0600 75.0000
54.0800 74.0000
54.1000 86.0000
54.1200 78.0000
54.1400 79.0000
54.1600 79.0000
54.1800 81.0000
54.2000 74.0000
54.2200 77.0000
54.2400 82.0000
54.2600 63.0000
54.2800 84.0000
54.3000 92.0000
54.3200 73.0000
54.3400 81.0000
54.3600 75.0000
54.3800 83.0000
54.4000 68.0000
54.4200 77.0000
54.4400 96.0000
54.4600 72.0000
54.4800 84.0000
54.5000 70.0000
54.5200 69.0000
54.5400 96.0000
54.5600 68.0000
54.5800 87.0000
54.6000 80.0000
54.6200 71.0000
54.6400 98.0000
54.6600 78.0000
54.6800 84.0000
54.7000 80.0000
54.7200 88.0000
54.7400 101.0000
54.7600 87.0000
54.7800 84.0000
54.8000 90.0000
54.8200 96.0000
54.8400 77.0000
54.8600 80.0000
54.8800 72.0000
54.9000 69.0000
54.9200 77.0000
54.9400 69.0000
54.9600 84.0000
54.9800 77.0000
55.0000 70.0000
55.0200 85.0000
55.0400 66.0000
55.0600 68.0000
55.0800 82.0000
55.1000 77.0000
55.1200 66.0000
55.1400 86.0000
55.1600 66.0000
55.1800 76.0000
55.2000 83.0000
55.2200 95.0000
55.2400 65.0000
55.2600 77.0000
55.2800 81.0000
55.3000 73.0000
55.3200 71.0000
55.3400 85.0000
55.3600 61.0000
55.3800 75.0000
55.4000 83.0000
55.4200 82.0000
55.4400 80.0000
55.4600 74.0000
55.4800 82.0000
55.5000 77.0000
55.5200 72.0000
55.5400 78.0000
55.5600 79.0000
55.5800 90.0000
55.6000 66.0000
55.6200 73.0000
55.6400 79.0000
55.6600 67.0000
55.6800 70.0000
55.7000 63.0000
55.7200 83.0000
55.7400 69.0000
55.7600 61.0000
55.7800 85.0000
55.8000 70.0000
55.8200 82.0000
55.8400 96.0000
55.8600 85.0000
55.8800 80.0000
55.9000 68.0000
55.9200 73.0000
55.9400 73.0000
55.9600 78.0000
55.9800 75.0000
56.0000 77.0000
56.0200 59.0000
56.0400 78.0000
56.0600 76.0000
56.0800 82.0000
56.1000 76.0000
56.1200 55.0000
56.1400 89.0000
56.1600 69.0000
56.1800 66.0000
56.2000 79.0000
56.2200 86.0000
56.2400 80.0000
56.2600 77.0000
56.2800 74.0000
56.3000 77.0000
56.3200 78.0000
56.3400 81.0000
56.3600 69.0000
56.3800 80.0000
56.4000 78.0000
56.4200 65.0000
56.4400 82.0000
56.4600 80.0000
56.4800 71.0000
56.5000 73.0000
56.5200 70.0000
56.5400 80.0000
56.5600 62.0000
56.5800 70.0000
56.6000 67.0000
56.6200 76.0000
56.6400 86.0000
56.6600 68.0000
56.6800 80.0000
56.7000 86.0000
56.7200 77.0000
56.7400 77.0000
56.7600 76.0000
56.7800 72.0000
56.8000 76.0000
56.8200 77.0000
56.8400 69.0000
56.8600 48.0000
56.8800 81.0000
56.9000 81.0000
56.9200 74.0000
56.9400 65.0000
56.9600 81.0000
56.9800 75.0000
57.0000 86.0000
57.0200 58.0000
57.0400 86.0000
57.0600 75.0000
57.0800 78.0000
57.1000 79.0000
57.1200 72.0000
57.1400 71.0000
57.1600 71.0000
57.1800 68.0000
57.2000 73.0000
57.2200 69.0000
57.2400 68.0000
57.2600 73.0000
57.2800 77.0000
57.3000 76.0000
57.3200 69.0000
57.3400 78.0000
57.3600 62.0000
57.3800 81.0000
57.4000 78.0000
57.4200 78.0000
57.4400 78.0000
57.4600 77.0000
57.4800 82.0000
57.5000 61.0000
57.5200 70.0000
57.5400 66.0000
57.5600 57.0000
57.5800 89.0000
57.6000 74.0000
57.6200 73.0000
57.6400 81.0000
57.6600 79.0000
57.6800 99.0000
57.7000 84.0000
57.7200 84.0000
57.7400 71.0000
57.7600 83.0000
57.7800 76.0000
57.8000 90.0000
57.8200 97.0000
57.8400 71.0000
57.8600 65.0000
57.8800 76.0000
57.9000 85.0000
57.9200 76.0000
57.9400 95.0000
57.9600 68.0000
57.9800 61.0000
58.0000 83.0000
58.0200 71.0000
58.0400 74.0000
58.0600 76.0000
58.0800 76.0000
58.1000 68.0000
58.1200 67.0000
58.1400 86.0000
58.1600 89.0000
58.1800 82.0000
58.2000 77.0000
58.2200 84.0000
58.2400 73.0000
58.2600 69.0000
58.2800 81.0000
58.3000 87.0000
58.3200 74.0000
58.3400 71.0000
58.3600 86.0000
58.3800 91.0000
58.4000 83.0000
58.4200 70.0000
58.4400 79.0000
58.4600 86.0000
58.4800 79.0000
58.5000 79.0000
58.5200 84.0000
58.5400 90.0000
58.5600 91.0000
58.5800 84.0000
58.6000 81.0000
58.6200 78.0000
58.6400 89.0000
58.6600 109.0000
58.6800 69.0000
58.7000 100.0000
58.7200 83.0000
58.7400 96.0000
58.7600 105.0000
58.7800 95.0000
58.8000 90.0000
58.8200 92.0000
58.8400 95.0000
58.8600 117.0000
58.8800 117.0000
58.9000 99.0000
58.9200 94.0000
58.9400 89.0000
58.9600 110.0000
58.9800 95.0000
59.0000 82.0000
59.0200 84.0000
59.0400 92.0000
59.0600 86.0000
59.0800 74.0000
59.1000 87.0000
59.1200 82.0000
59.1400 93.0000
59.1600 87.0000
59.1800 85.0000
59.2000 90.0000
59.2200 77.0000
59.2400 77.0000
59.2600 90.0000
59.2800 88.0000
59.3000 73.0000
59.3200 71.0000
59.3400 71.0000
59.3600 66.0000
59.3800 81.0000
59.4000 75.0000
59.4200 82.0000
59.4400 69.0000
59.4600 86.0000
59.4800 85.0000
59.5000 69.0000
59.5200 62.0000
59.5400 76.0000
59.5600 84.0000
59.5800 75.0000
59.6000 84.0000
59.6200 85.0000
59.6400 79.0000
59.6600 82.0000
59.6800 71.0000
59.7000 84.0000
59.7200 60.0000
59.7400 73.0000
59.7600 78.0000
59.7800 87.0000
59.8000 91.0000
59.8200 80.0000
59.8400 84.0000
59.8600 83.0000
59.8800 75.0000
59.9000 83.0000
59.9200 68.0000
59.9400 71.0000
59.9600 85.0000
59.9800 86.0000
60.0000 77.0000
60.0200 70.0000
60.0400 74.0000
60.0600 78.0000
60.0800 92.0000
60.1000 74.0000
60.1200 72.0000
60.1400 89.0000
60.1600 90.0000
60.1800 76.0000
60.2000 94.0000
60.2200 81.0000
60.2400 72.0000
60.2600 72.0000
60.2800 64.0000
60.3000 73.0000
60.3200 74.0000
60.3400 71.0000
60.3600 72.0000
60.3800 93.0000
60.4000 78.0000
60.4200 88.0000
60.4400 103.0000
60.4600 79.0000
60.4800 76.0000
60.5000 78.0000
60.5200 82.0000
60.5400 74.0000
60.5600 69.0000
60.5800 70.0000
60.6000 77.0000
60.6200 86.0000
60.6400 76.0000
60.6600 65.0000
60.6800 78.0000
60.7000 83.0000
60.7200 97.0000
60.7400 76.0000
60.7600 64.0000
60.7800 76.0000
60.8000 87.0000
60.8200 70.0000
60.8400 72.0000
60.8600 75.0000
60.8800 58.0000
60.9000 69.0000
60.9200 72.0000
60.9400 67.0000
60.9600 78.0000
60.9800 83.0000
61.0000 64.0000
61.0200 82.0000
61.0400 75.0000
61.0600 90.0000
61.0800 81.0000
61.1000 63.0000
61.1200 70.0000
61.1400 62.0000
61.1600 83.0000
61.1800 76.0000
61.2000 65.0000
61.2200 63.0000
61.2400 93.0000
61.2600 75.0000
61.2800 73.0000
61.3000 89.0000
61.3200 70.0000
61.3400 83.0000
61.3600 87.0000
61.3800 76.0000
61.4000 75.0000
61.4200 73.0000
61.4400 69.0000
61.4600 81.0000
61.4800 81.0000
61.5000 56.0000
61.5200 79.0000
61.5400 65.0000
61.5600 57.0000
61.5800 80.0000
61.6000 69.0000
61.6200 91.0000
61.6400 69.0000
61.6600 80.0000
61.6800 65.0000
61.7000 66.0000
61.7200 72.0000
61.7400 62.0000
61.7600 71.0000
61.7800 74.0000
61.8000 65.0000
61.8200 67.0000
61.8400 69.0000
61.8600 73.0000
61.8800 63.0000
61.9000 70.0000
61.9200 65.0000
61.9400 68.0000
61.9600 77.0000
61.9800 65.0000
62.0000 71.0000
62.0200 64.0000
62.0400 69.0000
62.0600 77.0000
62.0800 76.0000
62.1000 63.0000
62.1200 75.0000
62.1400 77.0000
62.1600 71.0000
62.1800 58.0000
62.2000 77.0000
62.2200 71.0000
62.2400 57.0000
62.2600 77.0000
62.2800 73.0000
62.3000 78.0000
62.3200 76.0000
62.3400 73.0000
62.3600 74.0000
62.3800 85.0000
62.4000 67.0000
62.4200 85.0000
62.4400 69.0000
62.4600 82.0000
62.4800 74.0000
62.5000 64.0000
62.5200 84.0000
62.5400 76.0000
62.5600 80.0000
62.5800 83.0000
62.6000 68.0000
62.6200 64.0000
62.6400 65.0000
62.6600 75.0000
62.6800 85.0000
62.7000 80.0000
62.7200 71.0000
62.7400 95.0000
62.7600 79.0000
62.7800 74.0000
62.8000 66.0000
62.8200 78.0000
62.8400 74.0000
62.8600 67.0000
62.8800 68.0000
62.9000 89.0000
62.9200 90.0000
62.9400 79.0000
62.9600 64.0000
62.9800 96.0000
63.0000 72.0000
63.0200 76.0000
63.0400 70.0000
63.0600 77.0000
63.0800 70.0000
63.1000 73.0000
63.1200 79.0000
63.1400 69.0000
63.1600 87.0000
63.1800 78.0000
63.2000 82.0000
63.2200 85.0000
63.2400 80.0000
63.2600 87.0000
63.2800 75.0000
63.3000 85.0000
63.3200 71.0000
63.3400 92.0000
63.3600 76.0000
63.3800 89.0000
63.4000 106.0000
63.4200 84.0000
63.4400 92.0000
63.4600 91.0000
63.4800 74.0000
63.5000 84.0000
63.5200 53.0000
63.5400 92.0000
63.5600 74.0000
63.5800 73.0000
63.6000 73.0000
63.6200 67.0000
63.6400 72.0000
63.6600 67.0000
63.6800 73.0000
63.7000 70.0000
63.7200 78.0000
63.7400 76.0000
63.7600 76.0000
63.7800 85.0000
63.8000 68.0000
63.8200 95.0000
63.8400 73.0000
63.8600 69.0000
63.8800 74.0000
63.9000 84.0000
63.9200 88.0000
63.9400 75.0000
63.9600 70.0000
63.9800 73.0000
64.0000 77.0000
64.0200 79.0000
64.0400 57.0000
64.0600 73.0000
64.0800 72.0000
64.1000 64.0000
64.1200 70.0000
64.1400 83.0000
64.1600 75.0000
64.1800 71.0000
64.2000 79.0000
64.2200 74.0000
64.2400 74.0000
64.2600 69.0000
64.2800 80.0000
64.3000 77.0000
64.3200 73.0000
64.3400 81.0000
64.3600 77.0000
64.3800 75.0000
64.4000 77.0000
64.4200 73.0000
64.4400 69.0000
64.4600 67.0000
64.4800 65.0000
64.5000 66.0000
64.5200 91.0000
64.5400 71.0000
64.5600 65.0000
64.5800 81.0000
64.6000 56.0000
64.6200 58.0000
64.6400 61.0000
64.6600 74.0000
64.6800 68.0000
64.7000 72.0000
64.7200 65.0000
64.7400 64.0000
64.7600 74.0000
64.7800 72.0000
64.8000 79.0000
64.8200 86.0000
64.8400 68.0000
64.8600 83.0000
64.8800 66.0000
64.9000 80.0000
64.9200 68.0000
64.9400 74.0000
64.9600 78.0000
64.9800 78.0000
65.0000 77.0000
65.0200 80.0000
65.0400 86.0000
65.0600 83.0000
65.0800 74.0000
65.1000 77.0000
65.1200 76.0000
65.1400 85.0000
65.1600 80.0000
65.1800 85.0000
65.2000 82.0000
65.2200 72.0000
65.2400 68.0000
65.2600 65.0000
65.2800 84.0000
65.3000 74.0000
65.3200 64.0000
65.3400 60.0000
65.3600 88.0000
65.3800 72.0000
65.4000 74.0000
65.4200 78.0000
65.4400 71.0000
65.4600 95.0000
65.4800 70.0000
65.5000 73.0000
65.5200 58.0000
65.5400 86.0000
65.5600 69.0000
65.5800 66.0000
65.6000 67.0000
65.6200 65.0000
65.6400 57.0000
65.6600 76.0000
65.6800 87.0000
65.7000 62.0000
65.7200 72.0000
65.7400 68.0000
65.7600 72.0000
65.7800 76.0000
65.8000 80.0000
65.8200 69.0000
65.8400 78.0000
65.8600 70.0000
65.8800 69.0000
65.9000 73.0000
65.9200 47.0000
65.9400 69.0000
65.9600 89.0000
65.9800 64.0000
66.0000 67.0000
66.0200 74.0000
66.0400 63.0000
66.0600 82.0000
66.0800 73.0000
66.1000 89.0000
66.1200 77.0000
66.1400 68.0000
66.1600 85.0000
66.1800 68.0000
66.2000 83.0000
66.2200 86.0000
66.2400 74.0000
66.2600 76.0000
66.2800 78.0000
66.3000 67.0000
66.3200 58.0000
66.3400 67.0000
66.3600 67.0000
66.3800 62.0000
66.4000 80.0000
66.4200 97.0000
66.4400 68.0000
66.4600 62.0000
66.4800 65.0000
66.5000 53.0000
66.5200 84.0000
66.5400 72.0000
66.5600 75.0000
66.5800 66.0000
66.6000 63.0000
66.6200 86.0000
66.6400 86.0000
66.6600 70.0000
66.6800 63.0000
66.7000 62.0000
66.7200 71.0000
66.7400 66.0000
66.7600 60.0000
66.7800 65.0000
66.8000 77.0000
66.8200 63.0000
66.8400 72.0000
66.8600 66.0000
66.8800 70.0000
66.9000 65.0000
66.9200 87.0000
66.9400 84.0000
66.9600 72.0000
66.9800 57.0000
67.0000 79.0000
67.0200 68.0000
67.0400 84.0000
67.0600 68.0000
67.0800 74.0000
67.1000 64.0000
67.1200 78.0000
67.1400 67.0000
67.1600 66.0000
67.1800 61.0000
67.2000 55.0000
67.2200 70.0000
67.2400 69.0000
67.2600 59.0000
67.2800 66.0000
67.3000 65.0000
67.3200 73.0000
67.3400 73.0000
67.3600 57.0000
67.3800 77.0000
67.4000 75.0000
67.4200 73.0000
67.4400 78.0000
67.4600 65.0000
67.4800 63.0000
67.5000 78.0000
67.5200 67.0000
67.5400 66.0000
67.5600 64.0000
67.5800 63.0000
67.6000 67.0000
67.6200 57.0000
67.6400 66.0000
67.6600 72.0000
67.6800 53.0000
67.7000 69.0000
67.7200 57.0000
67.7400 71.0000
67.7600 74.0000
67.7800 73.0000
67.8000 62.0000
67.8200 59.0000
67.8400 67.0000
67.8600 57.0000
67.8800 75.0000
67.9000 82.0000
67.9200 79.0000
67.9400 74.0000
67.9600 62.0000
67.9800 85.0000
68.0000 78.0000
68.0200 76.0000
68.0400 75.0000
68.0600 61.0000
68.0800 60.0000
68.1000 70.0000
68.1200 49.0000
68.1400 59.0000
68.1600 66.0000
68.1800 58.0000
68.2000 61.0000
68.2200 77.0000
68.2400 64.0000
68.2600 71.0000
68.2800 64.0000
68.3000 57.0000
68.3200 65.0000
68.3400 74.0000
68.3600 68.0000
68.3800 59.0000
68.4000 63.0000
68.4200 62.0000
68.4400 65.0000
68.4600 61.0000
68.4800 59.0000
68.5000 81.0000
68.5200 71.0000
68.5400 83.0000
68.5600 60.0000
68.5800 64.0000
68.6000 79.0000
68.6200 76.0000
68.6400 74.0000
68.6600 70.0000
68.6800 67.0000
68.7000 68.0000
68.7200 67.0000
68.7400 74.0000
68.7600 72.0000
68.7800 67.0000
68.8000 66.0000
68.8200 65.0000
68.8400 66.0000
68.8600 51.0000
68.8800 61.0000
68.9000 69.0000
68.9200 76.0000
68.9400 72.0000
68.9600 77.0000
68.9800 55.0000
69.0000 62.0000
69.0200 62.0000
69.0400 58.0000
69.0600 69.0000
69.0800 81.0000
69.1000 58.0000
69.1200 68.0000
69.1400 72.0000
69.1600 64.0000
69.1800 59.0000
69.2000 75.0000
69.2200 62.0000
69.2400 66.0000
69.2600 64.0000
69.2800 74.0000
69.3000 76.0000
69.3200 79.0000
69.3400 64.0000
69.3600 62.0000
69.3800 93.0000
69.4000 66.0000
69.4200 62.0000
69.4400 56.0000
69.4600 75.0000
69.4800 71.0000
69.5000 71.0000
69.5200 53.0000
69.5400 64.0000
69.5600 71.0000
69.5800 67.0000
69.6000 66.0000
69.6200 73.0000
69.6400 62.0000
69.6600 72.0000
69.6800 70.0000
69.7000 63.0000
69.7200 64.0000
69.7400 53.0000
69.7600 51.0000
69.7800 77.0000
69.8000 65.0000
69.8200 72.0000
69.8400 56.0000
69.8600 70.0000
69.8800 64.0000
69.9000 59.0000
69.9200 67.0000
69.9400 67.0000
69.9600 65.0000
69.9800 60.0000
70.0000 74.0000
70.0200 54.0000
70.0400 65.0000
70.0600 66.0000
70.0800 65.0000
70.1000 69.0000
70.1200 70.0000
70.1400 50.0000
70.1600 59.0000
70.1800 57.0000
70.2000 56.0000
70.2200 64.0000
70.2400 71.0000
70.2600 80.0000
70.2800 73.0000
70.3000 75.0000
70.3200 63.0000
70.3400 53.0000
70.3600 69.0000
70.3800 73.0000
70.4000 55.0000
70.4200 65.0000
70.4400 61.0000
70.4600 58.0000
70.4800 62.0000
70.5000 62.0000
70.5200 66.0000
70.5400 55.0000
70.5600 66.0000
70.5800 65.0000
70.6000 72.0000
70.6200 52.0000
70.6400 70.0000
70.6600 66.0000
70.6800 76.0000
70.7000 50.0000
70.7200 76.0000
70.7400 47.0000
70.7600 81.0000
70.7800 50.0000
70.8000 51.0000
70.8200 80.0000
70.8400 67.0000
70.8600 67.0000
70.8800 53.0000
70.9000 70.0000
70.9200 57.0000
70.9400 75.0000
70.9600 55.0000
70.9800 64.0000
71.0000 63.0000
71.0200 70.0000
71.0400 61.0000
71.0600 63.0000
71.0800 60.0000
71.1000 50.0000
71.1200 76.0000
71.1400 61.0000
71.1600 54.0000
71.1800 60.0000
71.2000 56.0000
71.2200 59.0000
71.2400 48.0000
71.2600 63.0000
71.2800 59.0000
71.3000 73.0000
71.3200 65.0000
71.3400 63.0000
71.3600 57.0000
71.3800 69.0000
71.4000 58.0000
71.4200 64.0000
71.4400 54.0000
71.4600 58.0000
71.4800 66.0000
71.5000 64.0000
71.5200 62.0000
71.5400 58.0000
71.5600 62.0000
71.5800 78.0000
71.6000 70.0000
71.6200 65.0000
71.6400 57.0000
71.6600 55.0000
71.6800 62.0000
71.7000 69.0000
71.7200 45.0000
71.7400 55.0000
71.7600 51.0000
71.7800 64.0000
71.8000 73.0000
71.8200 55.0000
71.8400 59.0000
71.8600 61.0000
71.8800 62.0000
71.9000 51.0000
71.9200 57.0000
71.9400 66.0000
71.9600 66.0000
71.9800 66.0000
72.0000 58.0000
72.0200 60.0000
72.0400 60.0000
72.0600 63.0000
72.0800 54.0000
72.1000 68.0000
72.1200 57.0000
72.1400 70.0000
72.1600 59.0000
72.1800 66.0000
72.2000 69.0000
72.2200 82.0000
72.2400 54.0000
72.2600 62.0000
72.2800 58.0000
72.3000 60.0000
72.3200 53.0000
72.3400 63.0000
72.3600 71.0000
72.3800 58.0000
72.4000 58.0000
72.4200 68.0000
72.4400 69.0000
72.4600 68.0000
72.4800 67.0000
72.5000 51.0000
72.5200 72.0000
72.5400 59.0000
72.5600 64.0000
72.5800 55.0000
72.6000 68.0000
72.6200 56.0000
72.6400 55.0000
72.6600 52.0000
72.6800 51.0000
72.7000 64.0000
72.7200 60.0000
72.7400 75.0000
72.7600 63.0000
72.7800 61.0000
72.8000 62.0000
72.8200 64.0000
72.8400 54.0000
72.8600 56.0000
72.8800 64.0000
72.9000 64.0000
72.9200 64.0000
72.9400 59.0000
72.9600 53.0000
72.9800 57.0000
73.0000 62.0000
73.0200 56.0000
73.0400 53.0000
73.0600 66.0000
73.0800 54.0000
73.1000 60.0000
73.1200 59.0000
73.1400 69.0000
73.1600 63.0000
73.1800 53.0000
73.2000 63.0000
73.2200 71.0000
73.2400 68.0000
73.2600 59.0000
73.2800 66.0000
73.3000 67.0000
73.3200 56.0000
73.3400 57.0000
73.3600 61.0000
73.3800 65.0000
73.4000 55.0000
73.4200 58.0000
73.4400 48.0000
73.4600 60.0000
73.4800 54.0000
73.5000 53.0000
73.5200 67.0000
73.5400 56.0000
73.5600 41.0000
73.5800 59.0000
73.6000 46.0000
73.6200 55.0000
73.6400 67.0000
73.6600 54.0000
73.6800 59.0000
73.7000 61.0000
73.7200 62.0000
73.7400 53.0000
73.7600 81.0000
73.7800 63.0000
73.8000 64.0000
73.8200 62.0000
73.8400 67.0000
73.8600 49.0000
73.8800 47.0000
73.9000 56.0000
73.9200 54.0000
73.9400 65.0000
73.9600 54.0000
73.9800 57.0000
74.0000 66.0000
74.0200 55.0000
74.0400 60.0000
74.0600 50.0000
74.0800 58.0000
74.1000 62.0000
74.1200 64.0000
74.1400 66.0000
74.1600 57.0000
74.1800 55.0000
74.2000 48.0000
74.2200 58.0000
74.2400 49.0000
74.2600 57.0000
74.2800 60.0000
74.3000 45.0000
74.3200 49.0000
74.3400 60.0000
74.3600 49.0000
74.3800 61.0000
74.4000 50.0000
74.4200 54.0000
74.4400 63.0000
74.4600 51.0000
74.4800 54.0000
74.5000 59.0000
74.5200 63.0000
74.5400 80.0000
74.5600 68.0000
74.5800 59.0000
74.6000 62.0000
74.6200 68.0000
74.6400 53.0000
74.6600 54.0000
74.6800 66.0000
74.7000 67.0000
74.7200 54.0000
74.7400 49.0000
74.7600 68.0000
74.7800 57.0000
74.8000 65.0000
74.8200 53.0000
74.8400 60.0000
74.8600 59.0000
74.8800 64.0000
74.9000 52.0000
74.9200 48.0000
74.9400 53.0000
74.9600 64.0000
74.9800 56.0000
75.0000 56.0000
75.0200 43.0000
75.0400 54.0000
75.0600 58.0000
75.0800 47.0000
75.1000 53.0000
75.1200 63.0000
75.1400 61.0000
75.1600 57.0000
75.1800 53.0000
75.2000 55.0000
75.2200 60.0000
75.2400 53.0000
75.2600 50.0000
75.2800 62.0000
75.3000 60.0000
75.3200 58.0000
75.3400 53.0000
75.3600 58.0000
75.3800 56.0000
75.4000 57.0000
75.4200 68.0000
75.4400 53.0000
75.4600 49.0000
75.4800 62.0000
75.5000 37.0000
75.5200 52.0000
75.5400 54.0000
75.5600 66.0000
75.5800 56.0000
75.6000 47.0000
75.6200 75.0000
75.6400 57.0000
75.6600 61.0000
75.6800 58.0000
75.7000 57.0000
75.7200 50.0000
75.7400 50.0000
75.7600 63.0000
75.7800 56.0000
75.8000 53.0000
75.8200 56.0000
75.8400 54.0000
75.8600 58.0000
75.8800 60.0000
75.9000 63.0000
75.9200 41.0000
75.9400 75.0000
75.9600 51.0000
75.9800 63.0000
76.0000 55.0000
76.0200 56.0000
76.0400 55.0000
76.0600 47.0000
76.0800 62.0000
76.1000 39.0000
76.1200 65.0000
76.1400 58.0000
76.1600 55.0000
76.1800 71.0000
76.2000 57.0000
76.2200 56.0000
76.2400 70.0000
76.2600 51.0000
76.2800 60.0000
76.3000 65.0000
76.3200 51.0000
76.3400 60.0000
76.3600 71.0000
76.3800 43.0000
76.4000 58.0000
76.4200 70.0000
76.4400 56.0000
76.4600 63.0000
76.4800 71.0000
76.5000 43.0000
76.5200 58.0000
76.5400 48.0000
76.5600 47.0000
76.5800 43.0000
76.6000 53.0000
76.6200 53.0000
76.6400 56.0000
76.6600 51.0000
76.6800 50.0000
76.7000 56.0000
76.7200 53.0000
76.7400 48.0000
76.7600 60.0000
76.7800 59.0000
76.8000 49.0000
76.8200 48.0000
76.8400 50.0000
76.8600 50.0000
76.8800 48.0000
76.9000 57.0000
76.9200 47.0000
76.9400 55.0000
76.9600 65.0000
76.9800 74.0000
77.0000 50.0000
77.0200 60.0000
77.0400 59.0000
77.0600 51.0000
77.0800 47.0000
77.1000 51.0000
77.1200 46.0000
77.1400 52.0000
77.1600 44.0000
77.1800 44.0000
77.2000 64.0000
77.2200 50.0000
77.2400 61.0000
77.2600 51.0000
77.2800 68.0000
77.3000 51.0000
77.3200 51.0000
77.3400 66.0000
77.3600 56.0000
77.3800 62.0000
77.4000 53.0000
77.4200 62.0000
77.4400 44.0000
77.4600 60.0000
77.4800 57.0000
77.5000 72.0000
77.5200 64.0000
77.5400 59.0000
77.5600 52.0000
77.5800 41.0000
77.6000 63.0000
77.6200 46.0000
77.6400 64.0000
77.6600 51.0000
77.6800 38.0000
77.7000 64.0000
77.7200 55.0000
77.7400 57.0000
77.7600 49.0000
77.7800 40.0000
77.8000 56.0000
77.8200 64.0000
77.8400 44.0000
77.8600 54.0000
77.8800 50.0000
77.9000 49.0000
77.9200 47.0000
77.9400 55.0000
77.9600 75.0000
77.9800 44.0000
78.0000 52.0000
78.0200 48.0000
78.0400 61.0000
78.0600 46.0000
78.0800 40.0000
78.1000 46.0000
78.1200 51.0000
78.1400 60.0000
78.1600 53.0000
78.1800 46.0000
78.2000 56.0000
78.2200 42.0000
78.2400 60.0000
78.2600 57.0000
78.2800 49.0000
78.3000 53.0000
78.3200 50.0000
78.3400 54.0000
78.3600 58.0000
78.3800 50.0000
78.4000 48.0000
78.4200 45.0000
78.4400 54.0000
78.4600 56.0000
78.4800 56.0000
78.5000 58.0000
78.5200 52.0000
78.5400 54.0000
78.5600 55.0000
78.5800 62.0000
78.6000 51.0000
78.6200 44.0000
78.6400 49.0000
78.6600 51.0000
78.6800 50.0000
78.7000 56.0000
78.7200 51.0000
78.7400 53.0000
78.7600 45.0000
78.7800 42.0000
78.8000 53.0000
78.8200 58.0000
78.8400 49.0000
78.8600 57.0000
78.8800 55.0000
78.9000 58.0000
78.9200 57.0000
78.9400 64.0000
78.9600 61.0000
78.9800 49.0000
79.0000 64.0000
79.0200 50.0000
79.0400 59.0000
79.0600 45.0000
79.0800 53.0000
79.1000 60.0000
79.1200 78.0000
79.1400 60.0000
79.1600 61.0000
79.1800 52.0000
79.2000 59.0000
79.2200 64.0000
79.2400 61.0000
79.2600 71.0000
79.2800 64.0000
79.3000 53.0000
79.3200 66.0000
79.3400 46.0000
79.3600 61.0000
79.3800 55.0000
79.4000 55.0000
79.4200 52.0000
79.4400 67.0000
79.4600 53.0000
79.4800 51.0000
79.5000 48.0000
79.5200 72.0000
79.5400 47.0000
79.5600 58.0000
79.5800 41.0000
79.6000 60.0000
79.6200 68.0000
79.6400 61.0000
79.6600 49.0000
79.6800 49.0000
79.7000 53.0000
79.7200 37.0000
79.7400 54.0000
79.7600 46.0000
79.7800 59.0000
79.8000 50.0000
79.8200 52.0000
79.8400 47.0000
79.8600 64.0000
79.8800 55.0000
79.9000 64.0000
79.9200 49.0000
79.9400 58.0000
79.9600 30.0000
79.9800 60.0000
80.0000 54.0000
