5.00000 2678.000
5.04000 2809.000
5.08000 2691.000
5.12000 2652.000
5.16000 2713.000
5.20000 2745.000
5.24000 2600.000
5.28000 2608.000
5.32000 2489.000
5.36000 2558.000
5.40000 2510.000
5.44000 2519.000
5.48000 2587.000
5.52000 2469.000
5.56000 2390.000
5.60000 2416.000
5.64000 2468.000
5.68000 2447.000
5.72000 2455.000
5.76000 2278.000
5.80000 2303.000
5.84000 2359.000
5.88000 2334.000
5.92000 2243.000
5.96000 2293.000
6.00000 2272.000
6.04000 2279.000
6.08000 2314.000
6.12000 2193.000
6.16000 2256.000
6.20000 2179.000
6.24000 2239.000
6.28000 2087.000
6.32000 2183.000
6.36000 2006.000
6.40000 2135.000
6.44000 2168.000
6.48000 2093.000
6.52000 1990.000
6.56000 2073.000
6.60000 2047.000
6.64000 2058.000
6.68000 2032.000
6.72000 2030.000
6.76000 1943.000
6.80000 1964.000
6.84000 1996.000
6.88000 1900.000
6.92000 1885.000
6.96000 1885.000
7.00000 1933.000
7.04000 1929.000
7.08000 1938.000
7.12000 1914.000
7.16000 1942.000
7.20000 1924.000
7.24000 1874.000
7.28000 1951.000
7.32000 1850.000
7.36000 1893.000
7.40000 1834.000
7.44000 1858.000
7.48000 1778.000
7.52000 1827.000
7.56000 1801.000
7.60000 1789.000
7.64000 1759.000
7.68000 1788.000
7.72000 1763.000
7.76000 1734.000
7.80000 1709.000
7.84000 1752.000
7.88000 1668.000
7.92000 1742.000
7.96000 1759.000
8.00000 1678.000
8.04000 1646.000
8.08000 1688.000
8.12000 1672.000
8.16000 1707.000
8.20000 1664.000
8.24000 1648.000
8.28000 1672.000
8.32000 1665.000
8.36000 1705.000
8.40000 1674.000
8.44000 1696.000
8.48000 1702.000
8.52000 1583.000
8.56000 1692.000
8.60000 1683.000
8.64000 1659.000
8.68000 1493.000
8.72000 1657.000
8.76000 1552.000
8.80000 1531.000
8.84000 1515.000
8.88000 1522.000
8.92000 1544.000
8.96000 1436.000
9.00000 1486.000
9.04000 1454.000
9.08000 1505.000
9.12000 1503.000
9.16000 1551.000
9.20000 1398.000
9.24000 1491.000
9.28000 1493.000
9.32000 1462.000
9.36000 1510.000
9.40000 1437.000
9.44000 1392.000
9.48000 1435.000
9.52000 1387.000
9.56000 1470.000
9.60000 1404.000
9.64000 1412.000
9.68000 1387.000
9.72000 1429.000
9.76000 1414.000
9.80000 1318.000
9.84000 1364.000
9.88000 1398.000
9.92000 1439.000
9.96000 1433.000
10.00000 1405.000
10.04000 1380.000
10.08000 1387.000
10.12000 1419.000
10.16000 1372.000
10.20000 1382.000
10.24000 1302.000
10.28000 1358.000
10.32000 1403.000
10.36000 1395.000
10.40000 1359.000
10.44000 1330.000
10.48000 1308.000
10.52000 1326.000
10.56000 1297.000
10.60000 1316.000
10.64000 1329.000
10.68000 1341.000
10.72000 1331.000
10.76000 1342.000
10.80000 1251.000
10.84000 1289.000
10.88000 1318.000
10.92000 1306.000
10.96000 1305.000
11.00000 1227.000
11.04000 1246.000
11.08000 1223.000
11.12000 1302.000
11.16000 1282.000
11.20000 1342.000
11.24000 1293.000
11.28000 1204.000
11.32000 1276.000
11.36000 1264.000
11.40000 1274.000
11.44000 1281.000
11.48000 1275.000
11.52000 1179.000
11.56000 1305.000
11.60000 1189.000
11.64000 1240.000
11.68000 1269.000
11.72000 1192.000
11.76000 1285.000
11.80000 1244.000
11.84000 1244.000
11.88000 1207.000
11.92000 1270.000
11.96000 1277.000
12.00000 1337.000
12.04000 1272.000
12.08000 1360.000
12.12000 1262.000
12.16000 1270.000
12.20000 1332.000
12.24000 1310.000
12.28000 1378.000
12.32000 1295.000
12.36000 1299.000
12.40000 1340.000
12.44000 1213.000
12.48000 1323.000
12.52000 1218.000
12.56000 1222.000
12.60000 1206.000
12.64000 1207.000
12.68000 1203.000
12.72000 1233.000
12.76000 1200.000
12.80000 1198.000
12.84000 1218.000
12.88000 1182.000
12.92000 1214.000
12.96000 1143.000
13.00000 1252.000
13.04000 1228.000
13.08000 1247.000
13.12000 1241.000
13.16000 1222.000
13.20000 1262.000
13.24000 1212.000
13.28000 1228.000
13.32000 1222.000
13.36000 1163.000
13.40000 1175.000
13.44000 1203.000
13.48000 1174.000
13.52000 1260.000
13.56000 1177.000
13.60000 1106.000
13.64000 1195.000
13.68000 1184.000
13.72000 1208.000
13.76000 1222.000
13.80000 1165.000
13.84000 1185.000
13.88000 1158.000
13.92000 1136.000
13.96000 1185.000
14.00000 1194.000
14.04000 1128.000
14.08000 1156.000
14.12000 1255.000
14.16000 1161.000
14.20000 1179.000
14.24000 1202.000
14.28000 1162.000
14.32000 1250.000
14.36000 1224.000
14.40000 1221.000
14.44000 1230.000
14.48000 1158.000
14.52000 1281.000
14.56000 1221.000
14.60000 1296.000
14.64000 1350.000
14.68000 1284.000
14.72000 1335.000
14.76000 1422.000
14.80000 1388.000
14.84000 1451.000
14.88000 1445.000
14.92000 1383.000
14.96000 1433.000
15.00000 1445.000
15.04000 1384.000
15.08000 1378.000
15.12000 1345.000
15.16000 1295.000
15.20000 1326.000
15.24000 1326.000
15.28000 1268.000
15.32000 1184.000
15.36000 1198.000
15.40000 1171.000
15.44000 1204.000
15.48000 1214.000
15.52000 1243.000
15.56000 1252.000
15.60000 1190.000
15.64000 1214.000
15.68000 1182.000
15.72000 1183.000
15.76000 1193.000
15.80000 1211.000
15.84000 1173.000
15.88000 1161.000
15.92000 1159.000
15.96000 1202.000
16.00000 1201.000
16.04000 1109.000
16.08000 1213.000
16.12000 1175.000
16.16000 1185.000
16.20000 1191.000
16.24000 1162.000
16.28000 1197.000
16.32000 1179.000
16.36000 1158.000
16.40000 1189.000
16.44000 1191.000
16.48000 1322.000
16.52000 1300.000
16.56000 1216.000
16.60000 1246.000
16.64000 1162.000
16.68000 1255.000
16.72000 1248.000
16.76000 1288.000
16.80000 1296.000
16.84000 1309.000
16.88000 1366.000
16.92000 1302.000
16.96000 1265.000
17.00000 1335.000
17.04000 1367.000
17.08000 1315.000
17.12000 1341.000
17.16000 1278.000
17.20000 1334.000
17.24000 1266.000
17.28000 1273.000
17.32000 1281.000
17.36000 1319.000
17.40000 1376.000
17.44000 1324.000
17.48000 1273.000
17.52000 1257.000
17.56000 1288.000
17.60000 1277.000
17.64000 1341.000
17.68000 1332.000
17.72000 1324.000
17.76000 1342.000
17.80000 1261.000
17.84000 1318.000
17.88000 1259.000
17.92000 1305.000
17.96000 1341.000
18.00000 1356.000
18.04000 1332.000
18.08000 1330.000
18.12000 1289.000
18.16000 1378.000
18.20000 1321.000
18.24000 1359.000
18.28000 1382.000
18.32000 1361.000
18.36000 1358.000
18.40000 1358.000
18.44000 1381.000
18.48000 1362.000
18.52000 1426.000
18.56000 1415.000
18.60000 1375.000
18.64000 1340.000
18.68000 1385.000
18.72000 1407.000
18.76000 1337.000
18.80000 1367.000
18.84000 1452.000
18.88000 1431.000
18.92000 1410.000
18.96000 1406.000
19.00000 1395.000
19.04000 1413.000
19.08000 1458.000
19.12000 1427.000
19.16000 1434.000
19.20000 1540.000
19.24000 1438.000
19.28000 1424.000
19.32000 1456.000
19.36000 1461.000
19.40000 1534.000
19.44000 1483.000
19.48000 1510.000
19.52000 1482.000
19.56000 1534.000
19.60000 1465.000
19.64000 1512.000
19.68000 1559.000
19.72000 1602.000
19.76000 1510.000
19.80000 1514.000
19.84000 1483.000
19.88000 1558.000
19.92000 1535.000
19.96000 1557.000
20.00000 1472.000
20.04000 1604.000
20.08000 1522.000
20.12000 1546.000
20.16000 1529.000
20.20000 1501.000
20.24000 1541.000
20.28000 1589.000
20.32000 1549.000
20.36000 1629.000
20.40000 1626.000
20.44000 1538.000
20.48000 1631.000
20.52000 1633.000
20.56000 1640.000
20.60000 1693.000
20.64000 1633.000
20.68000 1676.000
20.72000 1760.000
20.76000 1693.000
20.80000 1820.000
20.84000 1721.000
20.88000 1836.000
20.92000 1729.000
20.96000 1852.000
21.00000 1836.000
21.04000 1755.000
21.08000 1667.000
21.12000 1678.000
21.16000 1693.000
21.20000 1684.000
21.24000 1618.000
21.28000 1637.000
21.32000 1731.000
21.36000 1613.000
21.40000 1701.000
21.44000 1762.000
21.48000 1705.000
21.52000 1669.000
21.56000 1713.000
21.60000 1809.000
21.64000 1714.000
21.68000 1720.000
21.72000 1731.000
21.76000 1673.000
21.80000 1740.000
21.84000 1700.000
21.88000 1746.000
21.92000 1747.000
21.96000 1775.000
22.00000 1696.000
22.04000 1749.000
22.08000 1717.000
22.12000 1766.000
22.16000 1807.000
22.20000 1727.000
22.24000 1712.000
22.28000 1790.000
22.32000 1735.000
22.36000 1806.000
22.40000 1733.000
22.44000 1768.000
22.48000 1722.000
22.52000 1820.000
22.56000 1743.000
22.60000 1743.000
22.64000 1757.000
22.68000 1760.000
22.72000 1792.000
22.76000 1796.000
22.80000 1826.000
22.84000 1792.000
22.88000 1719.000
22.92000 1789.000
22.96000 1756.000
23.00000 1816.000
23.04000 1852.000
23.08000 1846.000
23.12000 1845.000
23.16000 1739.000
23.20000 1821.000
23.24000 1890.000
23.28000 1890.000
23.32000 1825.000
23.36000 1843.000
23.40000 1835.000
23.44000 1806.000
23.48000 1860.000
23.52000 1863.000
23.56000 1783.000
23.60000 1938.000
23.64000 1870.000
23.68000 1965.000
23.72000 1941.000
23.76000 1938.000
23.80000 1909.000
23.84000 2026.000
23.88000 2037.000
23.92000 2081.000
23.96000 2259.000
24.00000 2201.000
24.04000 2317.000
24.08000 2208.000
24.12000 2348.000
24.16000 2288.000
24.20000 2200.000
24.24000 2255.000
24.28000 2187.000
24.32000 2119.000
24.36000 2042.000
24.40000 1973.000
24.44000 1907.000
24.48000 1899.000
24.52000 1899.000
24.56000 1954.000
24.60000 1891.000
24.64000 1998.000
24.68000 1916.000
24.72000 1974.000
24.76000 1979.000
24.80000 1991.000
24.84000 1974.000
24.88000 1905.000
24.92000 1913.000
24.96000 2013.000
25.00000 1995.000
25.04000 1980.000
25.08000 1989.000
25.12000 1969.000
25.16000 1917.000
25.20000 1928.000
25.24000 1965.000
25.28000 1928.000
25.32000 1951.000
25.36000 1935.000
25.40000 1927.000
25.44000 1933.000
25.48000 1983.000
25.52000 1913.000
25.56000 2075.000
25.60000 2160.000
25.64000 2230.000
25.68000 2262.000
25.72000 2364.000
25.76000 2445.000
25.80000 2337.000
25.84000 2404.000
25.88000 2490.000
25.92000 2390.000
25.96000 2373.000
26.00000 2219.000
26.04000 2257.000
26.08000 2248.000
26.12000 2225.000
26.16000 2100.000
26.20000 2084.000
26.24000 1990.000
26.28000 2102.000
26.32000 1968.000
26.36000 1930.000
26.40000 1899.000
26.44000 1947.000
26.48000 1848.000
26.52000 1808.000
26.56000 1780.000
26.60000 1699.000
26.64000 1703.000
26.68000 1663.000
26.72000 1777.000
26.76000 1772.000
26.80000 1665.000
26.84000 1751.000
26.88000 1712.000
26.92000 1755.000
26.96000 1680.000
27.00000 1642.000
27.04000 1747.000
27.08000 1648.000
27.12000 1683.000
27.16000 1692.000
27.20000 1732.000
27.24000 1773.000
27.28000 1740.000
27.32000 1686.000
27.36000 1696.000
27.40000 1761.000
27.44000 1734.000
27.48000 1677.000
27.52000 1721.000
27.56000 1734.000
27.60000 1736.000
27.64000 1667.000
27.68000 1669.000
27.72000 1684.000
27.76000 1746.000
27.80000 1731.000
27.84000 1646.000
27.88000 1658.000
27.92000 1695.000
27.96000 1701.000
28.00000 1743.000
28.04000 1767.000
28.08000 1701.000
28.12000 1764.000
28.16000 1720.000
28.20000 1712.000
28.24000 1709.000
28.28000 1802.000
28.32000 1766.000
28.36000 1725.000
28.40000 1730.000
28.44000 1681.000
28.48000 1685.000
28.52000 1642.000
28.56000 1630.000
28.60000 1592.000
28.64000 1638.000
28.68000 1598.000
28.72000 1583.000
28.76000 1582.000
28.80000 1564.000
28.84000 1567.000
28.88000 1626.000
28.92000 1522.000
28.96000 1520.000
29.00000 1576.000
29.04000 1574.000
29.08000 1566.000
29.12000 1520.000
29.16000 1614.000
29.20000 1577.000
29.24000 1502.000
29.28000 1535.000
29.32000 1507.000
29.36000 1634.000
29.40000 1558.000
29.44000 1608.000
29.48000 1583.000
29.52000 1494.000
29.56000 1616.000
29.60000 1640.000
29.64000 1543.000
29.68000 1663.000
29.72000 1607.000
29.76000 1635.000
29.80000 1642.000
29.84000 1646.000
29.88000 1615.000
29.92000 1634.000
29.96000 1670.000
30.00000 1664.000
30.04000 1638.000
30.08000 1644.000
30.12000 1599.000
30.16000 1698.000
30.20000 1641.000
30.24000 1817.000
30.28000 1781.000
30.32000 1654.000
30.36000 1802.000
30.40000 1729.000
30.44000 1780.000
30.48000 1674.000
30.52000 1635.000
30.56000 1553.000
30.60000 1625.000
30.64000 1564.000
30.68000 1529.000
30.72000 1512.000
30.76000 1534.000
30.80000 1457.000
30.84000 1524.000
30.88000 1445.000
30.92000 1485.000
30.96000 1468.000
31.00000 1404.000
31.04000 1492.000
31.08000 1437.000
31.12000 1444.000
31.16000 1456.000
31.20000 1415.000
31.24000 1332.000
31.28000 1427.000
31.32000 1450.000
31.36000 1402.000
31.40000 1493.000
31.44000 1333.000
31.48000 1429.000
31.52000 1365.000
31.56000 1328.000
31.60000 1332.000
31.64000 1367.000
31.68000 1385.000
31.72000 1390.000
31.76000 1279.000
31.80000 1271.000
31.84000 1326.000
31.88000 1362.000
31.92000 1300.000
31.96000 1323.000
32.00000 1336.000
32.04000 1258.000
32.08000 1298.000
32.12000 1283.000
32.16000 1323.000
32.20000 1308.000
32.24000 1353.000
32.28000 1304.000
32.32000 1248.000
32.36000 1271.000
32.40000 1319.000
32.44000 1279.000
32.48000 1242.000
32.52000 1264.000
32.56000 1290.000
32.60000 1212.000
32.64000 1281.000
32.68000 1233.000
32.72000 1284.000
32.76000 1295.000
32.80000 1255.000
32.84000 1221.000
32.88000 1223.000
32.92000 1241.000
32.96000 1216.000
33.00000 1240.000
33.04000 1227.000
33.08000 1208.000
33.12000 1215.000
33.16000 1267.000
33.20000 1193.000
33.24000 1224.000
33.28000 1198.000
33.32000 1146.000
33.36000 1226.000
33.40000 1185.000
33.44000 1230.000
33.48000 1260.000
33.52000 1230.000
33.56000 1274.000
33.60000 1220.000
33.64000 1263.000
33.68000 1239.000
33.72000 1252.000
33.76000 1272.000
33.80000 1145.000
33.84000 1297.000
33.88000 1207.000
33.92000 1130.000
33.96000 1198.000
34.00000 1178.000
34.04000 1216.000
34.08000 1132.000
34.12000 1157.000
34.16000 1164.000
34.20000 1223.000
34.24000 1250.000
34.28000 1282.000
34.32000 1242.000
34.36000 1307.000
34.40000 1265.000
34.44000 1362.000
34.48000 1314.000
34.52000 1279.000
34.56000 1232.000
34.60000 1127.000
34.64000 1199.000
34.68000 1166.000
34.72000 1101.000
34.76000 1068.000
34.80000 1056.000
34.84000 1101.000
34.88000 1056.000
34.92000 1053.000
34.96000 1008.000
35.00000 1093.000
35.04000 988.000
35.08000 1060.000
35.12000 1060.000
35.16000 1015.000
35.20000 1060.000
35.24000 955.000
35.28000 981.000
35.32000 1045.000
35.36000 962.000
35.40000 939.000
35.44000 977.000
35.48000 956.000
35.52000 991.000
35.56000 943.000
35.60000 929.000
35.64000 945.000
35.68000 981.000
35.72000 948.000
35.76000 903.000
35.80000 908.000
35.84000 913.000
35.88000 913.000
35.92000 929.000
35.96000 930.000
36.00000 888.000
36.04000 883.000
36.08000 1006.000
36.12000 944.000
36.16000 922.000
36.20000 895.000
36.24000 916.000
36.28000 869.000
36.32000 883.000
36.36000 901.000
36.40000 923.000
36.44000 871.000
36.48000 891.000
36.52000 854.000
36.56000 910.000
36.60000 941.000
36.64000 849.000
36.68000 856.000
36.72000 869.000
36.76000 858.000
36.80000 891.000
36.84000 872.000
36.88000 869.000
36.92000 845.000
36.96000 868.000
37.00000 912.000
37.04000 867.000
37.08000 854.000
37.12000 874.000
37.16000 858.000
37.20000 867.000
37.24000 836.000
37.28000 792.000
37.32000 848.000
37.36000 856.000
37.40000 822.000
37.44000 862.000
37.48000 877.000
37.52000 819.000
37.56000 882.000
37.60000 817.000
37.64000 815.000
37.68000 840.000
37.72000 792.000
37.76000 841.000
37.80000 812.000
37.84000 806.000
37.88000 805.000
37.92000 820.000
37.96000 788.000
38.00000 824.000
38.04000 756.000
38.08000 753.000
38.12000 780.000
38.16000 774.000
38.20000 760.000
38.24000 831.000
38.28000 803.000
38.32000 803.000
38.36000 740.000
38.40000 735.000
38.44000 782.000
38.48000 807.000
38.52000 831.000
38.56000 801.000
38.60000 773.000
38.64000 734.000
38.68000 772.000
38.72000 800.000
38.76000 813.000
38.80000 779.000
38.84000 785.000
38.88000 767.000
38.92000 770.000
38.96000 774.000
39.00000 755.000
39.04000 785.000
39.08000 741.000
39.12000 708.000
39.16000 813.000
39.20000 719.000
39.24000 714.000
39.28000 792.000
39.32000 743.000
39.36000 773.000
39.40000 740.000
39.44000 716.000
39.48000 727.000
39.52000 683.000
39.56000 716.000
39.60000 764.000
39.64000 757.000
39.68000 792.000
39.72000 762.000
39.76000 737.000
39.80000 744.000
39.84000 742.000
39.88000 741.000
39.92000 753.000
39.96000 755.000
40.00000 694.000
40.04000 743.000
40.08000 710.000
40.12000 762.000
40.16000 724.000
40.20000 779.000
40.24000 744.000
40.28000 723.000
40.32000 780.000
40.36000 774.000
40.40000 732.000
40.44000 723.000
40.48000 764.000
40.52000 712.000
40.56000 772.000
40.60000 751.000
40.64000 743.000
40.68000 767.000
40.72000 751.000
40.76000 809.000
40.80000 749.000
40.84000 724.000
40.88000 720.000
40.92000 768.000
40.96000 767.000
41.00000 736.000
41.04000 692.000
41.08000 737.000
41.12000 795.000
41.16000 757.000
41.20000 735.000
41.24000 729.000
41.28000 781.000
41.32000 778.000
41.36000 795.000
41.40000 796.000
41.44000 763.000
41.48000 714.000
41.52000 762.000
41.56000 783.000
41.60000 751.000
41.64000 797.000
41.68000 786.000
41.72000 745.000
41.76000 769.000
41.80000 761.000
41.84000 701.000
41.88000 766.000
41.92000 783.000
41.96000 718.000
42.00000 808.000
42.04000 769.000
42.08000 759.000
42.12000 724.000
42.16000 754.000
42.20000 755.000
42.24000 848.000
42.28000 846.000
42.32000 833.000
42.36000 875.000
42.40000 890.000
42.44000 935.000
42.48000 933.000
42.52000 910.000
42.56000 915.000
42.60000 962.000
42.64000 940.000
42.68000 914.000
42.72000 909.000
42.76000 925.000
42.80000 907.000
42.84000 908.000
42.88000 779.000
42.92000 922.000
42.96000 886.000
43.00000 883.000
43.04000 810.000
43.08000 840.000
43.12000 870.000
43.16000 845.000
43.20000 794.000
43.24000 814.000
43.28000 818.000
43.32000 776.000
43.36000 754.000
43.40000 823.000
43.44000 766.000
43.48000 740.000
43.52000 730.000
43.56000 815.000
43.60000 752.000
43.64000 791.000
43.68000 764.000
43.72000 763.000
43.76000 742.000
43.80000 759.000
43.84000 770.000
43.88000 769.000
43.92000 748.000
43.96000 768.000
44.00000 731.000
44.04000 766.000
44.08000 751.000
44.12000 759.000
44.16000 743.000
44.20000 729.000
44.24000 756.000
44.28000 708.000
44.32000 681.000
44.36000 688.000
44.40000 728.000
44.44000 669.000
44.48000 700.000
44.52000 726.000
44.56000 696.000
44.60000 720.000
44.64000 707.000
44.68000 812.000
44.72000 766.000
44.76000 745.000
44.80000 714.000
44.84000 746.000
44.88000 697.000
44.92000 725.000
44.96000 740.000
45.00000 790.000
45.04000 767.000
45.08000 746.000
45.12000 778.000
45.16000 737.000
45.20000 794.000
45.24000 751.000
45.28000 734.000
45.32000 794.000
45.36000 732.000
45.40000 742.000
45.44000 691.000
45.48000 713.000
45.52000 775.000
45.56000 762.000
45.60000 763.000
45.64000 770.000
45.68000 716.000
45.72000 706.000
45.76000 715.000
45.80000 735.000
45.84000 700.000
45.88000 728.000
45.92000 725.000
45.96000 645.000
46.00000 710.000
46.04000 693.000
46.08000 678.000
46.12000 722.000
46.16000 756.000
46.20000 720.000
46.24000 674.000
46.28000 738.000
46.32000 681.000
46.36000 690.000
46.40000 697.000
46.44000 695.000
46.48000 643.000
46.52000 680.000
46.56000 663.000
46.60000 719.000
46.64000 645.000
46.68000 670.000
46.72000 685.000
46.76000 728.000
46.80000 687.000
46.84000 691.000
46.88000 699.000
46.92000 698.000
46.96000 661.000
47.00000 695.000
47.04000 718.000
47.08000 669.000
47.12000 706.000
47.16000 655.000
47.20000 678.000
47.24000 693.000
47.28000 683.000
47.32000 668.000
47.36000 680.000
47.40000 699.000
47.44000 657.000
47.48000 682.000
47.52000 641.000
47.56000 682.000
47.60000 678.000
47.64000 651.000
47.68000 699.000
47.72000 657.000
47.76000 630.000
47.80000 674.000
47.84000 630.000
47.88000 688.000
47.92000 638.000
47.96000 630.000
48.00000 665.000
48.04000 698.000
48.08000 672.000
48.12000 706.000
48.16000 618.000
48.20000 632.000
48.24000 646.000
48.28000 619.000
48.32000 682.000
48.36000 629.000
48.40000 630.000
48.44000 624.000
48.48000 628.000
48.52000 626.000
48.56000 679.000
48.60000 665.000
48.64000 622.000
48.68000 618.000
48.72000 611.000
48.76000 668.000
48.80000 595.000
48.84000 634.000
48.88000 603.000
48.92000 646.000
48.96000 638.000
49.00000 632.000
49.04000 599.000
49.08000 621.000
49.12000 611.000
49.16000 631.000
49.20000 643.000
49.24000 609.000
49.28000 638.000
49.32000 669.000
49.36000 637.000
49.40000 622.000
49.44000 651.000
49.48000 671.000
49.52000 633.000
49.56000 621.000
49.60000 597.000
49.64000 654.000
49.68000 633.000
49.72000 641.000
49.76000 603.000
49.80000 649.000
49.84000 624.000
49.88000 642.000
49.92000 613.000
49.96000 633.000
50.00000 641.000
50.04000 615.000
50.08000 604.000
50.12000 578.000
50.16000 629.000
50.20000 587.000
50.24000 643.000
50.28000 619.000
50.32000 634.000
50.36000 638.000
50.40000 628.000
50.44000 625.000
50.48000 607.000
50.52000 668.000
50.56000 644.000
50.60000 624.000
50.64000 590.000
50.68000 636.000
50.72000 661.000
50.76000 607.000
50.80000 643.000
50.84000 629.000
50.88000 605.000
50.92000 667.000
50.96000 633.000
51.00000 587.000
51.04000 653.000
51.08000 660.000
51.12000 652.000
51.16000 612.000
51.20000 606.000
51.24000 624.000
51.28000 609.000
51.32000 623.000
51.36000 649.000
51.40000 588.000
51.44000 629.000
51.48000 630.000
51.52000 639.000
51.56000 611.000
51.60000 606.000
51.64000 628.000
51.68000 613.000
51.72000 600.000
51.76000 598.000
51.80000 581.000
51.84000 643.000
51.88000 607.000
51.92000 613.000
51.96000 622.000
52.00000 581.000
52.04000 651.000
52.08000 664.000
52.12000 610.000
52.16000 644.000
52.20000 623.000
52.24000 604.000
52.28000 627.000
52.32000 619.000
52.36000 578.000
52.40000 603.000
52.44000 586.000
52.48000 615.000
52.52000 653.000
52.56000 570.000
52.60000 600.000
52.64000 595.000
52.68000 551.000
52.72000 591.000
52.76000 638.000
52.80000 575.000
52.84000 593.000
52.88000 622.000
52.92000 571.000
52.96000 600.000
53.00000 605.000
53.04000 667.000
53.08000 613.000
53.12000 577.000
53.16000 631.000
53.20000 651.000
53.24000 614.000
53.28000 600.000
53.32000 644.000
53.36000 611.000
53.40000 675.000
53.44000 587.000
53.48000 631.000
53.52000 646.000
53.56000 571.000
53.60000 608.000
53.64000 607.000
53.68000 603.000
53.72000 626.000
53.76000 571.000
53.80000 637.000
53.84000 631.000
53.88000 608.000
53.92000 615.000
53.96000 589.000
54.00000 633.000
54.04000 642.000
54.08000 640.000
54.12000 624.000
54.16000 609.000
54.20000 621.000
54.24000 604.000
54.28000 586.000
54.32000 589.000
54.36000 587.000
54.40000 581.000
54.44000 595.000
54.48000 580.000
54.52000 623.000
54.56000 575.000
54.60000 642.000
54.64000 636.000
54.68000 643.000
54.72000 601.000
54.76000 618.000
54.80000 642.000
54.84000 606.000
54.88000 591.000
54.92000 610.000
54.96000 599.000
55.00000 632.000
55.04000 625.000
55.08000 589.000
55.12000 615.000
55.16000 604.000
55.20000 574.000
55.24000 625.000
55.28000 596.000
55.32000 635.000
55.36000 581.000
55.40000 597.000
55.44000 577.000
55.48000 637.000
55.52000 601.000
55.56000 611.000
55.60000 593.000
55.64000 646.000
55.68000 613.000
55.72000 653.000
55.76000 628.000
55.80000 599.000
55.84000 637.000
55.88000 679.000
55.92000 660.000
55.96000 623.000
56.00000 667.000
56.04000 633.000
56.08000 597.000
56.12000 589.000
56.16000 663.000
56.20000 619.000
56.24000 630.000
56.28000 649.000
56.32000 595.000
56.36000 575.000
56.40000 569.000
56.44000 593.000
56.48000 636.000
56.52000 628.000
56.56000 597.000
56.60000 584.000
56.64000 588.000
56.68000 611.000
56.72000 608.000
56.76000 613.000
56.80000 579.000
56.84000 540.000
56.88000 638.000
56.92000 583.000
56.96000 610.000
57.00000 578.000
57.04000 555.000
57.08000 606.000
57.12000 629.000
57.16000 570.000
57.20000 557.000
57.24000 650.000
57.28000 607.000
57.32000 571.000
57.36000 606.000
57.40000 541.000
57.44000 548.000
57.48000 611.000
57.52000 570.000
57.56000 595.000
57.60000 633.000
57.64000 579.000
57.68000 645.000
57.72000 611.000
57.76000 577.000
57.80000 659.000
57.84000 582.000
57.88000 642.000
57.92000 574.000
57.96000 589.000
58.00000 586.000
58.04000 643.000
58.08000 608.000
58.12000 603.000
58.16000 620.000
58.20000 614.000
58.24000 630.000
58.28000 600.000
58.32000 606.000
58.36000 614.000
58.40000 626.000
58.44000 628.000
58.48000 619.000
58.52000 588.000
58.56000 631.000
58.60000 650.000
58.64000 582.000
58.68000 595.000
58.72000 641.000
58.76000 650.000
58.80000 608.000
58.84000 618.000
58.88000 607.000
58.92000 585.000
58.96000 592.000
59.00000 558.000
59.04000 619.000
59.08000 592.000
59.12000 629.000
59.16000 574.000
59.20000 587.000
59.24000 595.000
59.28000 632.000
59.32000 551.000
59.36000 597.000
59.40000 584.000
59.44000 609.000
59.48000 596.000
59.52000 611.000
59.56000 592.000
59.60000 600.000
59.64000 580.000
59.68000 620.000
59.72000 587.000
59.76000 589.000
59.80000 592.000
59.84000 604.000
59.88000 630.000
59.92000 573.000
