5.00000 6658.000
5.04000 6476.000
5.08000 6179.000
5.12000 5858.000
5.16000 5617.000
5.20000 5530.000
5.24000 5650.000
5.28000 5272.000
5.32000 5048.000
5.36000 5208.000
5.40000 4861.000
5.44000 4661.000
5.48000 4632.000
5.52000 4439.000
5.56000 4430.000
5.60000 4160.000
5.64000 4177.000
5.68000 3961.000
5.72000 3820.000
5.76000 3851.000
5.80000 3754.000
5.84000 3687.000
5.88000 3582.000
5.92000 3342.000
5.96000 3280.000
6.00000 3184.000
6.04000 3165.000
6.08000 3034.000
6.12000 3012.000
6.16000 2874.000
6.20000 2854.000
6.24000 2751.000
6.28000 2652.000
6.32000 2562.000
6.36000 2638.000
6.40000 2632.000
6.44000 2532.000
6.48000 2389.000
6.52000 2369.000
6.56000 2228.000
6.60000 2257.000
6.64000 2243.000
6.68000 2233.000
6.72000 2174.000
6.76000 2116.000
6.80000 2090.000
6.84000 2006.000
6.88000 2021.000
6.92000 1937.000
6.96000 1874.000
7.00000 1939.000
7.04000 1975.000
7.08000 1817.000
7.12000 1870.000
7.16000 1822.000
7.20000 1785.000
7.24000 1744.000
7.28000 1713.000
7.32000 1625.000
7.36000 1682.000
7.40000 1595.000
7.44000 1724.000
7.48000 1670.000
7.52000 1527.000
7.56000 1635.000
7.60000 1523.000
7.64000 1573.000
7.68000 1595.000
7.72000 1472.000
7.76000 1530.000
7.80000 1422.000
7.84000 1483.000
7.88000 1451.000
7.92000 1442.000
7.96000 1399.000
8.00000 1331.000
8.04000 1346.000
8.08000 1396.000
8.12000 1341.000
8.16000 1250.000
8.20000 1274.000
8.24000 1296.000
8.28000 1234.000
8.32000 1329.000
8.36000 1292.000
8.40000 1208.000
8.44000 1227.000
8.48000 1304.000
8.52000 1255.000
8.56000 1260.000
8.60000 1229.000
8.64000 1192.000
8.68000 1237.000
8.72000 1213.000
8.76000 1159.000
8.80000 1107.000
8.84000 1150.000
8.88000 1184.000
8.92000 1164.000
8.96000 1209.000
9.00000 1172.000
9.04000 1163.000
9.08000 1142.000
9.12000 1144.000
9.16000 1153.000
9.20000 1092.000
9.24000 1089.000
9.28000 1163.000
9.32000 1098.000
9.36000 1088.000
9.40000 1170.000
9.44000 1128.000
9.48000 1132.000
9.52000 1168.000
9.56000 1225.000
9.60000 1206.000
9.64000 1203.000
9.68000 1349.000
9.72000 1368.000
9.76000 1513.000
9.80000 1844.000
9.84000 2238.000
9.88000 3127.000
9.92000 4137.000
9.96000 4846.000
10.00000 4589.000
10.04000 3555.000
10.08000 2681.000
10.12000 2017.000
10.16000 1643.000
10.20000 1420.000
10.24000 1350.000
10.28000 1170.000
10.32000 1123.000
10.36000 1005.000
10.40000 1090.000
10.44000 1018.000
10.48000 1023.000
10.52000 1044.000
10.56000 1063.000
10.60000 1012.000
10.64000 1003.000
10.68000 971.000
10.72000 954.000
10.76000 962.000
10.80000 900.000
10.84000 925.000
10.88000 946.000
10.92000 978.000
10.96000 975.000
11.00000 931.000
11.04000 932.000
11.08000 918.000
11.12000 959.000
11.16000 919.000
11.20000 885.000
11.24000 907.000
11.28000 922.000
11.32000 895.000
11.36000 928.000
11.40000 883.000
11.44000 885.000
11.48000 841.000
11.52000 896.000
11.56000 886.000
11.60000 885.000
11.64000 859.000
11.68000 925.000
11.72000 914.000
11.76000 914.000
11.80000 894.000
11.84000 883.000
11.88000 896.000
11.92000 905.000
11.96000 935.000
12.00000 888.000
12.04000 939.000
12.08000 880.000
12.12000 904.000
12.16000 931.000
12.20000 923.000
12.24000 846.000
12.28000 866.000
12.32000 929.000
12.36000 879.000
12.40000 892.000
12.44000 856.000
12.48000 852.000
12.52000 964.000
12.56000 917.000
12.60000 933.000
12.64000 875.000
12.68000 854.000
12.72000 875.000
12.76000 943.000
12.80000 932.000
12.84000 881.000
12.88000 942.000
12.92000 932.000
12.96000 946.000
13.00000 857.000
13.04000 903.000
13.08000 953.000
13.12000 927.000
13.16000 977.000
13.20000 1025.000
13.24000 995.000
13.28000 1131.000
13.32000 1167.000
13.36000 1212.000
13.40000 1167.000
13.44000 1101.000
13.48000 1127.000
13.52000 1117.000
13.56000 1028.000
13.60000 987.000
13.64000 1026.000
13.68000 998.000
13.72000 998.000
13.76000 1084.000
13.80000 1043.000
13.84000 1035.000
13.88000 979.000
13.92000 1021.000
13.96000 983.000
14.00000 1049.000
14.04000 1020.000
14.08000 1031.000
14.12000 1015.000
14.16000 1070.000
14.20000 1132.000
14.24000 1190.000
14.28000 1149.000
14.32000 1146.000
14.36000 1221.000
14.40000 1254.000
14.44000 1257.000
14.48000 1382.000
14.52000 1388.000
14.56000 1513.000
14.60000 1632.000
14.64000 1812.000
14.68000 2044.000
14.72000 2413.000
14.76000 3072.000
14.80000 4006.000
14.84000 5557.000
14.88000 7595.000
14.92000 9626.000
14.96000 10544.000
15.00000 8978.000
15.04000 6716.000
15.08000 4615.000
15.12000 3356.000
15.16000 2409.000
15.20000 1839.000
15.24000 1631.000
15.28000 1363.000
15.32000 1220.000
15.36000 1221.000
15.40000 1166.000
15.44000 1030.000
15.48000 1055.000
15.52000 1044.000
15.56000 1012.000
15.60000 1033.000
15.64000 1055.000
15.68000 1016.000
15.72000 973.000
15.76000 997.000
15.80000 946.000
15.84000 993.000
15.88000 978.000
15.92000 1008.000
15.96000 922.000
16.00000 934.000
16.04000 949.000
16.08000 981.000
16.12000 931.000
16.16000 966.000
16.20000 926.000
16.24000 998.000
16.28000 1059.000
16.32000 954.000
16.36000 997.000
16.40000 951.000
16.44000 1006.000
16.48000 992.000
16.52000 995.000
16.56000 1008.000
16.60000 955.000
16.64000 1000.000
16.68000 1005.000
16.72000 1008.000
16.76000 989.000
16.80000 1059.000
16.84000 1018.000
16.88000 1025.000
16.92000 1033.000
16.96000 1014.000
17.00000 987.000
17.04000 1106.000
17.08000 1028.000
17.12000 1120.000
17.16000 982.000
17.20000 1064.000
17.24000 1058.000
17.28000 1011.000
17.32000 1050.000
17.36000 1035.000
17.40000 1089.000
17.44000 1126.000
17.48000 1076.000
17.52000 1097.000
17.56000 1082.000
17.60000 1089.000
17.64000 1115.000
17.68000 1074.000
17.72000 1130.000
17.76000 1067.000
17.80000 1092.000
17.84000 1168.000
17.88000 1123.000
17.92000 1220.000
17.96000 1169.000
18.00000 1142.000
18.04000 1144.000
18.08000 1154.000
18.12000 1176.000
18.16000 1201.000
18.20000 1131.000
18.24000 1193.000
18.28000 1150.000
18.32000 1146.000
18.36000 1161.000
18.40000 1235.000
18.44000 1181.000
18.48000 1204.000
18.52000 1226.000
18.56000 1224.000
18.60000 1193.000
18.64000 1218.000
18.68000 1235.000
18.72000 1195.000
18.76000 1264.000
18.80000 1300.000
18.84000 1217.000
18.88000 1304.000
18.92000 1315.000
18.96000 1260.000
19.00000 1267.000
19.04000 1226.000
19.08000 1314.000
19.12000 1297.000
19.16000 1274.000
19.20000 1285.000
19.24000 1322.000
19.28000 1285.000
19.32000 1305.000
19.36000 1352.000
19.40000 1381.000
19.44000 1313.000
19.48000 1337.000
19.52000 1410.000
19.56000 1349.000
19.60000 1340.000
19.64000 1375.000
19.68000 1311.000
19.72000 1443.000
19.76000 1385.000
19.80000 1462.000
19.84000 1513.000
19.88000 1556.000
19.92000 1750.000
19.96000 1953.000
20.00000 2003.000
20.04000 1942.000
20.08000 1774.000
20.12000 1629.000
20.16000 1589.000
20.20000 1450.000
20.24000 1514.000
20.28000 1461.000
20.32000 1462.000
20.36000 1461.000
20.40000 1465.000
20.44000 1498.000
20.48000 1453.000
20.52000 1483.000
20.56000 1446.000
20.60000 1560.000
20.64000 1481.000
20.68000 1481.000
20.72000 1507.000
20.76000 1470.000
20.80000 1522.000
20.84000 1522.000
20.88000 1548.000
20.92000 1523.000
20.96000 1499.000
21.00000 1505.000
21.04000 1582.000
21.08000 1608.000
21.12000 1556.000
21.16000 1544.000
21.20000 1518.000
21.24000 1590.000
21.28000 1578.000
21.32000 1570.000
21.36000 1559.000
21.40000 1564.000
21.44000 1595.000
21.48000 1575.000
21.52000 1607.000
21.56000 1588.000
21.60000 1577.000
21.64000 1583.000
21.68000 1607.000
21.72000 1594.000
21.76000 1597.000
21.80000 1572.000
21.84000 1547.000
21.88000 1729.000
21.92000 1649.000
21.96000 1673.000
22.00000 1616.000
22.04000 1673.000
22.08000 1652.000
22.12000 1655.000
22.16000 1643.000
22.20000 1646.000
22.24000 1640.000
22.28000 1637.000
22.32000 1673.000
22.36000 1692.000
22.40000 1773.000
22.44000 1635.000
22.48000 1627.000
22.52000 1606.000
22.56000 1660.000
22.60000 1726.000
22.64000 1669.000
22.68000 1677.000
22.72000 1709.000
22.76000 1749.000
22.80000 1686.000
22.84000 1651.000
22.88000 1666.000
22.92000 1682.000
22.96000 1687.000
23.00000 1700.000
23.04000 1690.000
23.08000 1673.000
23.12000 1741.000
23.16000 1576.000
23.20000 1611.000
23.24000 1749.000
23.28000 1685.000
23.32000 1693.000
23.36000 1669.000
23.40000 1638.000
23.44000 1646.000
23.48000 1751.000
23.52000 1648.000
23.56000 1672.000
23.60000 1729.000
23.64000 1678.000
23.68000 1703.000
23.72000 1753.000
23.76000 1744.000
23.80000 1713.000
23.84000 1752.000
23.88000 1764.000
23.92000 1726.000
23.96000 1764.000
24.00000 1791.000
24.04000 1734.000
24.08000 1748.000
24.12000 1670.000
24.16000 1712.000
24.20000 1733.000
24.24000 1711.000
24.28000 1709.000
24.32000 1729.000
24.36000 1780.000
24.40000 1786.000
24.44000 1824.000
24.48000 1767.000
24.52000 1829.000
24.56000 1809.000
24.60000 1866.000
24.64000 1906.000
24.68000 1910.000
24.72000 1968.000
24.76000 2132.000
24.80000 2226.000
24.84000 2499.000
24.88000 2829.000
24.92000 3483.000
24.96000 4370.000
25.00000 5803.000
25.04000 7298.000
25.08000 7513.000
25.12000 6928.000
25.16000 5862.000
25.20000 4636.000
25.24000 3625.000
25.28000 2994.000
25.32000 2681.000
25.36000 2421.000
25.40000 2156.000
25.44000 2097.000
25.48000 2040.000
25.52000 2022.000
25.56000 2098.000
25.60000 2062.000
25.64000 2085.000
25.68000 2119.000
25.72000 2316.000
25.76000 2768.000
25.80000 3576.000
25.84000 4132.000
25.88000 3843.000
25.92000 3248.000
25.96000 2483.000
26.00000 2043.000
26.04000 1961.000
26.08000 1732.000
26.12000 1775.000
26.16000 1735.000
26.20000 1715.000
26.24000 1742.000
26.28000 1646.000
26.32000 1753.000
26.36000 1698.000
26.40000 1647.000
26.44000 1716.000
26.48000 1581.000
26.52000 1617.000
26.56000 1626.000
26.60000 1667.000
26.64000 1742.000
26.68000 1674.000
26.72000 1699.000
26.76000 1658.000
26.80000 1617.000
26.84000 1709.000
26.88000 1737.000
26.92000 1803.000
26.96000 1699.000
27.00000 1640.000
27.04000 1701.000
27.08000 1674.000
27.12000 1682.000
27.16000 1557.000
27.20000 1601.000
27.24000 1627.000
27.28000 1651.000
27.32000 1564.000
27.36000 1610.000
27.40000 1596.000
27.44000 1617.000
27.48000 1565.000
27.52000 1621.000
27.56000 1624.000
27.60000 1618.000
27.64000 1639.000
27.68000 1487.000
27.72000 1573.000
27.76000 1588.000
27.80000 1562.000
27.84000 1609.000
27.88000 1534.000
27.92000 1601.000
27.96000 1544.000
28.00000 1525.000
28.04000 1491.000
28.08000 1488.000
28.12000 1537.000
28.16000 1574.000
28.20000 1570.000
28.24000 1582.000
28.28000 1530.000
28.32000 1515.000
28.36000 1621.000
28.40000 1466.000
28.44000 1530.000
28.48000 1559.000
28.52000 1495.000
28.56000 1518.000
28.60000 1501.000
28.64000 1504.000
28.68000 1543.000
28.72000 1515.000
28.76000 1558.000
28.80000 1520.000
28.84000 1505.000
28.88000 1554.000
28.92000 1477.000
28.96000 1499.000
29.00000 1547.000
29.04000 1479.000
29.08000 1443.000
29.12000 1476.000
29.16000 1473.000
29.20000 1477.000
29.24000 1470.000
29.28000 1550.000
29.32000 1522.000
29.36000 1465.000
29.40000 1478.000
29.44000 1518.000
29.48000 1525.000
29.52000 1451.000
29.56000 1521.000
29.60000 1528.000
29.64000 1454.000
29.68000 1568.000
29.72000 1644.000
29.76000 1568.000
29.80000 1601.000
29.84000 1774.000
29.88000 1827.000
29.92000 2045.000
29.96000 2192.000
30.00000 2674.000
30.04000 3337.000
30.08000 4470.000
30.12000 5767.000
30.16000 6721.000
30.20000 6979.000
30.24000 6339.000
30.28000 5054.000
30.32000 4027.000
30.36000 3029.000
30.40000 2491.000
30.44000 2133.000
30.48000 1872.000
30.52000 1700.000
30.56000 1539.000
30.60000 1554.000
30.64000 1494.000
30.68000 1531.000
30.72000 1478.000
30.76000 1520.000
30.80000 1434.000
30.84000 1343.000
30.88000 1450.000
30.92000 1379.000
30.96000 1312.000
31.00000 1312.000
31.04000 1253.000
31.08000 1344.000
31.12000 1335.000
31.16000 1377.000
31.20000 1334.000
31.24000 1326.000
31.28000 1371.000
31.32000 1363.000
31.36000 1237.000
31.40000 1244.000
31.44000 1323.000
31.48000 1292.000
31.52000 1289.000
31.56000 1247.000
31.60000 1315.000
31.64000 1348.000
31.68000 1275.000
31.72000 1313.000
31.76000 1314.000
31.80000 1273.000
31.84000 1325.000
31.88000 1272.000
31.92000 1248.000
31.96000 1257.000
32.00000 1306.000
32.04000 1271.000
32.08000 1272.000
32.12000 1218.000
32.16000 1306.000
32.20000 1256.000
32.24000 1272.000
32.28000 1277.000
32.32000 1202.000
32.36000 1218.000
32.40000 1239.000
32.44000 1171.000
32.48000 1296.000
32.52000 1179.000
32.56000 1157.000
32.60000 1188.000
32.64000 1207.000
32.68000 1233.000
32.72000 1218.000
32.76000 1232.000
32.80000 1244.000
32.84000 1184.000
32.88000 1203.000
32.92000 1177.000
32.96000 1203.000
33.00000 1198.000
33.04000 1220.000
33.08000 1171.000
33.12000 1198.000
33.16000 1205.000
33.20000 1182.000
33.24000 1189.000
33.28000 1183.000
33.32000 1201.000
33.36000 1112.000
33.40000 1220.000
33.44000 1136.000
33.48000 1105.000
33.52000 1275.000
33.56000 1270.000
33.60000 1202.000
33.64000 1279.000
33.68000 1417.000
33.72000 1499.000
33.76000 1610.000
33.80000 1631.000
33.84000 1617.000
33.88000 1512.000
33.92000 1405.000
33.96000 1323.000
34.00000 1332.000
34.04000 1281.000
34.08000 1379.000
34.12000 1295.000
34.16000 1286.000
34.20000 1296.000
34.24000 1290.000
34.28000 1229.000
34.32000 1223.000
34.36000 1269.000
34.40000 1363.000
34.44000 1203.000
34.48000 1244.000
34.52000 1254.000
34.56000 1311.000
34.60000 1411.000
34.64000 1368.000
34.68000 1397.000
34.72000 1425.000
34.76000 1455.000
34.80000 1487.000
34.84000 1618.000
34.88000 1636.000
34.92000 1759.000
34.96000 1852.000
35.00000 2203.000
35.04000 2499.000
35.08000 2893.000
35.12000 3649.000
35.16000 4564.000
35.20000 6359.000
35.24000 8522.000
35.28000 11430.000
35.32000 13493.000
35.36000 14356.000
35.40000 13009.000
35.44000 11083.000
35.48000 8189.000
35.52000 5889.000
35.56000 4123.000
35.60000 3077.000
35.64000 2329.000
35.68000 1906.000
35.72000 1619.000
35.76000 1379.000
35.80000 1358.000
35.84000 1200.000
35.88000 1174.000
35.92000 1095.000
35.96000 1084.000
36.00000 1066.000
36.04000 1012.000
36.08000 976.000
36.12000 900.000
36.16000 931.000
36.20000 943.000
36.24000 900.000
36.28000 965.000
36.32000 883.000
36.36000 911.000
36.40000 849.000
36.44000 878.000
36.48000 862.000
36.52000 831.000
36.56000 872.000
36.60000 886.000
36.64000 875.000
36.68000 860.000
36.72000 877.000
36.76000 949.000
36.80000 964.000
36.84000 1032.000
36.88000 969.000
36.92000 912.000
36.96000 848.000
37.00000 828.000
37.04000 784.000
37.08000 795.000
37.12000 792.000
37.16000 813.000
37.20000 761.000
37.24000 767.000
37.28000 758.000
37.32000 735.000
37.36000 743.000
37.40000 772.000
37.44000 788.000
37.48000 804.000
37.52000 799.000
37.56000 741.000
37.60000 816.000
37.64000 820.000
37.68000 778.000
37.72000 794.000
37.76000 729.000
37.80000 727.000
37.84000 690.000
37.88000 766.000
37.92000 756.000
37.96000 716.000
38.00000 686.000
38.04000 729.000
38.08000 739.000
38.12000 711.000
38.16000 728.000
38.20000 722.000
38.24000 705.000
38.28000 718.000
38.32000 674.000
38.36000 765.000
38.40000 744.000
38.44000 752.000
38.48000 712.000
38.52000 713.000
38.56000 689.000
38.60000 728.000
38.64000 690.000
38.68000 724.000
38.72000 747.000
38.76000 797.000
38.80000 796.000
38.84000 752.000
38.88000 747.000
38.92000 740.000
38.96000 722.000
39.00000 708.000
39.04000 748.000
39.08000 733.000
39.12000 734.000
39.16000 705.000
39.20000 717.000
39.24000 688.000
39.28000 751.000
39.32000 683.000
39.36000 722.000
39.40000 735.000
39.44000 782.000
39.48000 801.000
39.52000 758.000
39.56000 731.000
39.60000 764.000
39.64000 762.000
39.68000 772.000
39.72000 702.000
39.76000 725.000
39.80000 763.000
39.84000 837.000
39.88000 816.000
39.92000 767.000
39.96000 823.000
40.00000 884.000
40.04000 842.000
40.08000 879.000
40.12000 921.000
40.16000 969.000
40.20000 1073.000
40.24000 1051.000
40.28000 1171.000
40.32000 1433.000
40.36000 1632.000
40.40000 2243.000
40.44000 3182.000
40.48000 4591.000
40.52000 7110.000
40.56000 10181.000
40.60000 12315.000
40.64000 12241.000
40.68000 11041.000
40.72000 9173.000
40.76000 6778.000
40.80000 4718.000
40.84000 3158.000
40.88000 2330.000
40.92000 1746.000
40.96000 1436.000
41.00000 1197.000
41.04000 1079.000
41.08000 990.000
41.12000 950.000
41.16000 860.000
41.20000 897.000
41.24000 868.000
41.28000 805.000
41.32000 823.000
41.36000 772.000
41.40000 760.000
41.44000 757.000
41.48000 767.000
41.52000 789.000
41.56000 753.000
41.60000 715.000
41.64000 700.000
41.68000 706.000
41.72000 730.000
41.76000 707.000
41.80000 658.000
41.84000 748.000
41.88000 691.000
41.92000 773.000
41.96000 723.000
42.00000 694.000
42.04000 680.000
42.08000 733.000
42.12000 701.000
42.16000 657.000
42.20000 680.000
42.24000 687.000
42.28000 673.000
42.32000 676.000
42.36000 670.000
42.40000 673.000
42.44000 699.000
42.48000 692.000
42.52000 639.000
42.56000 672.000
42.60000 702.000
42.64000 649.000
42.68000 700.000
42.72000 674.000
42.76000 706.000
42.80000 670.000
42.84000 691.000
42.88000 706.000
42.92000 648.000
42.96000 691.000
43.00000 676.000
43.04000 717.000
43.08000 672.000
43.12000 704.000
43.16000 626.000
43.20000 643.000
43.24000 632.000
43.28000 709.000
43.32000 699.000
43.36000 668.000
43.40000 660.000
43.44000 659.000
43.48000 653.000
43.52000 660.000
43.56000 650.000
43.60000 648.000
43.64000 663.000
43.68000 621.000
43.72000 653.000
43.76000 685.000
43.80000 618.000
43.84000 690.000
43.88000 698.000
43.92000 673.000
43.96000 645.000
44.00000 669.000
44.04000 688.000
44.08000 648.000
44.12000 652.000
44.16000 676.000
44.20000 648.000
44.24000 678.000
44.28000 643.000
44.32000 642.000
44.36000 679.000
44.40000 670.000
44.44000 677.000
44.48000 605.000
44.52000 642.000
44.56000 632.000
44.60000 647.000
44.64000 659.000
44.68000 644.000
44.72000 609.000
44.76000 654.000
44.80000 658.000
44.84000 682.000
44.88000 637.000
44.92000 652.000
44.96000 651.000
45.00000 687.000
45.04000 638.000
45.08000 669.000
45.12000 608.000
45.16000 649.000
45.20000 610.000
45.24000 636.000
45.28000 656.000
45.32000 654.000
45.36000 690.000
45.40000 638.000
45.44000 619.000
45.48000 630.000
45.52000 722.000
45.56000 718.000
45.60000 729.000
45.64000 683.000
45.68000 708.000
45.72000 749.000
45.76000 764.000
45.80000 775.000
45.84000 782.000
45.88000 935.000
45.92000 1013.000
45.96000 1046.000
46.00000 1059.000
46.04000 998.000
46.08000 932.000
46.12000 864.000
46.16000 822.000
46.20000 716.000
46.24000 668.000
46.28000 696.000
46.32000 678.000
46.36000 648.000
46.40000 655.000
46.44000 672.000
46.48000 636.000
46.52000 634.000
46.56000 664.000
46.60000 634.000
46.64000 639.000
46.68000 640.000
46.72000 618.000
46.76000 651.000
46.80000 609.000
46.84000 652.000
46.88000 616.000
46.92000 605.000
46.96000 580.000
47.00000 599.000
47.04000 571.000
47.08000 591.000
47.12000 630.000
47.16000 622.000
47.20000 598.000
47.24000 619.000
47.28000 597.000
47.32000 607.000
47.36000 611.000
47.40000 563.000
47.44000 630.000
47.48000 575.000
47.52000 581.000
47.56000 577.000
47.60000 589.000
47.64000 660.000
47.68000 611.000
47.72000 586.000
47.76000 578.000
47.80000 623.000
47.84000 589.000
47.88000 574.000
47.92000 615.000
47.96000 635.000
48.00000 621.000
48.04000 593.000
48.08000 547.000
48.12000 603.000
48.16000 614.000
48.20000 563.000
48.24000 567.000
48.28000 583.000
48.32000 593.000
48.36000 588.000
48.40000 586.000
48.44000 625.000
48.48000 594.000
48.52000 611.000
48.56000 577.000
48.60000 586.000
48.64000 566.000
48.68000 570.000
48.72000 639.000
48.76000 596.000
48.80000 582.000
48.84000 597.000
48.88000 581.000
48.92000 542.000
48.96000 585.000
49.00000 568.000
49.04000 581.000
49.08000 615.000
49.12000 546.000
49.16000 561.000
49.20000 592.000
49.24000 574.000
49.28000 567.000
49.32000 579.000
49.36000 550.000
49.40000 552.000
49.44000 569.000
49.48000 547.000
49.52000 616.000
49.56000 603.000
49.60000 549.000
49.64000 554.000
49.68000 593.000
49.72000 541.000
49.76000 577.000
49.80000 566.000
49.84000 564.000
49.88000 584.000
49.92000 548.000
49.96000 566.000
50.00000 553.000
50.04000 581.000
50.08000 592.000
50.12000 580.000
50.16000 561.000
50.20000 566.000
50.24000 588.000
50.28000 584.000
50.32000 564.000
50.36000 565.000
50.40000 573.000
50.44000 561.000
50.48000 549.000
50.52000 554.000
50.56000 551.000
50.60000 537.000
50.64000 573.000
50.68000 593.000
50.72000 564.000
50.76000 560.000
50.80000 572.000
50.84000 538.000
50.88000 548.000
50.92000 531.000
50.96000 487.000
51.00000 545.000
51.04000 556.000
51.08000 546.000
51.12000 563.000
51.16000 546.000
51.20000 521.000
51.24000 581.000
51.28000 584.000
51.32000 559.000
51.36000 601.000
51.40000 579.000
51.44000 618.000
51.48000 630.000
51.52000 606.000
51.56000 578.000
51.60000 569.000
51.64000 513.000
51.68000 556.000
51.72000 570.000
51.76000 556.000
51.80000 568.000
51.84000 517.000
51.88000 559.000
51.92000 580.000
51.96000 569.000
52.00000 535.000
52.04000 524.000
52.08000 553.000
52.12000 523.000
52.16000 522.000
52.20000 556.000
52.24000 562.000
52.28000 534.000
52.32000 567.000
52.36000 579.000
52.40000 539.000
52.44000 538.000
52.48000 521.000
52.52000 555.000
52.56000 529.000
52.60000 531.000
52.64000 556.000
52.68000 560.000
52.72000 534.000
52.76000 495.000
52.80000 544.000
52.84000 574.000
52.88000 538.000
52.92000 554.000
52.96000 590.000
53.00000 575.000
53.04000 621.000
53.08000 699.000
53.12000 670.000
53.16000 671.000
53.20000 618.000
53.24000 607.000
53.28000 613.000
53.32000 629.000
53.36000 575.000
53.40000 568.000
53.44000 542.000
53.48000 565.000
53.52000 568.000
53.56000 528.000
53.60000 571.000
53.64000 565.000
53.68000 534.000
53.72000 551.000
53.76000 541.000
53.80000 557.000
53.84000 551.000
53.88000 546.000
53.92000 516.000
53.96000 522.000
54.00000 544.000
54.04000 579.000
54.08000 545.000
54.12000 516.000
54.16000 591.000
54.20000 582.000
54.24000 519.000
54.28000 517.000
54.32000 592.000
54.36000 572.000
54.40000 564.000
54.44000 538.000
54.48000 546.000
54.52000 577.000
54.56000 513.000
54.60000 511.000
54.64000 526.000
54.68000 553.000
54.72000 517.000
54.76000 544.000
54.80000 556.000
54.84000 550.000
54.88000 574.000
54.92000 545.000
54.96000 521.000
55.00000 553.000
55.04000 528.000
55.08000 559.000
55.12000 504.000
55.16000 533.000
55.20000 601.000
55.24000 576.000
55.28000 551.000
55.32000 563.000
55.36000 607.000
55.40000 526.000
55.44000 545.000
55.48000 563.000
55.52000 553.000
55.56000 584.000
55.60000 548.000
55.64000 560.000
55.68000 563.000
55.72000 524.000
55.76000 561.000
55.80000 535.000
55.84000 559.000
55.88000 585.000
55.92000 533.000
55.96000 596.000
56.00000 600.000
56.04000 522.000
56.08000 579.000
56.12000 510.000
56.16000 574.000
56.20000 545.000
56.24000 550.000
56.28000 580.000
56.32000 568.000
56.36000 577.000
56.40000 597.000
56.44000 585.000
56.48000 554.000
56.52000 597.000
56.56000 621.000
56.60000 601.000
56.64000 626.000
56.68000 685.000
56.72000 706.000
56.76000 776.000
56.80000 806.000
56.84000 933.000
56.88000 1112.000
56.92000 1244.000
56.96000 1380.000
57.00000 1398.000
57.04000 1359.000
57.08000 1250.000
57.12000 1148.000
57.16000 1085.000
57.20000 921.000
57.24000 814.000
57.28000 724.000
57.32000 663.000
57.36000 694.000
57.40000 643.000
57.44000 633.000
57.48000 614.000
57.52000 547.000
57.56000 583.000
57.60000 587.000
57.64000 592.000
57.68000 564.000
57.72000 579.000
57.76000 551.000
57.80000 510.000
57.84000 536.000
57.88000 559.000
57.92000 563.000
57.96000 556.000
58.00000 534.000
58.04000 514.000
58.08000 548.000
58.12000 513.000
58.16000 568.000
58.20000 545.000
58.24000 558.000
58.28000 570.000
58.32000 529.000
58.36000 542.000
58.40000 521.000
58.44000 555.000
58.48000 567.000
58.52000 553.000
58.56000 530.000
58.60000 568.000
58.64000 537.000
58.68000 570.000
58.72000 536.000
58.76000 535.000
58.80000 512.000
58.84000 531.000
58.88000 521.000
58.92000 581.000
58.96000 521.000
59.00000 568.000
59.04000 553.000
59.08000 533.000
59.12000 534.000
59.16000 549.000
59.20000 576.000
59.24000 516.000
59.28000 507.000
59.32000 511.000
59.36000 551.000
59.40000 492.000
59.44000 564.000
59.48000 560.000
59.52000 562.000
59.56000 550.000
59.60000 552.000
59.64000 532.000
59.68000 565.000
59.72000 524.000
59.76000 525.000
59.80000 561.000
59.84000 519.000
59.88000 529.000
59.92000 579.000
59.96000 574.000
60.00000 606.000
60.04000 569.000
60.08000 524.000
60.12000 566.000
60.16000 595.000
60.20000 528.000
60.24000 544.000
60.28000 542.000
60.32000 516.000
60.36000 583.000
60.40000 560.000
60.44000 529.000
60.48000 562.000
60.52000 587.000
60.56000 545.000
60.60000 570.000
60.64000 538.000
60.68000 536.000
60.72000 556.000
60.76000 520.000
60.80000 552.000
60.84000 540.000
60.88000 528.000
60.92000 554.000
60.96000 573.000
61.00000 510.000
61.04000 530.000
61.08000 575.000
61.12000 549.000
61.16000 534.000
61.20000 540.000
61.24000 513.000
61.28000 508.000
61.32000 524.000
61.36000 553.000
61.40000 532.000
61.44000 565.000
61.48000 532.000
61.52000 581.000
61.56000 537.000
61.60000 531.000
61.64000 557.000
61.68000 522.000
61.72000 507.000
61.76000 549.000
61.80000 527.000
61.84000 563.000
61.88000 513.000
61.92000 573.000
61.96000 535.000
62.00000 524.000
62.04000 556.000
62.08000 534.000
62.12000 572.000
62.16000 554.000
62.20000 561.000
62.24000 593.000
62.28000 590.000
62.32000 551.000
62.36000 546.000
62.40000 547.000
62.44000 553.000
62.48000 529.000
62.52000 613.000
62.56000 647.000
62.60000 697.000
62.64000 744.000
62.68000 802.000
62.72000 816.000
62.76000 800.000
62.80000 785.000
62.84000 756.000
62.88000 766.000
62.92000 709.000
62.96000 677.000
63.00000 651.000
63.04000 630.000
63.08000 562.000
63.12000 564.000
63.16000 533.000
63.20000 534.000
63.24000 579.000
63.28000 523.000
63.32000 533.000
63.36000 531.000
63.40000 575.000
63.44000 521.000
63.48000 541.000
63.52000 521.000
63.56000 563.000
63.60000 538.000
63.64000 494.000
63.68000 547.000
63.72000 554.000
63.76000 513.000
63.80000 541.000
63.84000 507.000
63.88000 520.000
63.92000 525.000
63.96000 493.000
64.00000 544.000
64.04000 551.000
64.08000 499.000
64.12000 541.000
64.16000 534.000
64.20000 541.000
64.24000 543.000
64.28000 563.000
64.32000 518.000
64.36000 536.000
64.40000 509.000
64.44000 525.000
64.48000 508.000
64.52000 545.000
64.56000 486.000
64.60000 491.000
64.64000 501.000
64.68000 526.000
64.72000 540.000
64.76000 527.000
64.80000 516.000
64.84000 483.000
64.88000 514.000
64.92000 536.000
64.96000 534.000
65.00000 543.000
65.04000 482.000
65.08000 487.000
65.12000 504.000
65.16000 526.000
65.20000 522.000
65.24000 477.000
65.28000 499.000
65.32000 518.000
65.36000 498.000
65.40000 501.000
65.44000 499.000
65.48000 517.000
65.52000 495.000
65.56000 479.000
65.60000 533.000
65.64000 484.000
65.68000 471.000
65.72000 535.000
65.76000 504.000
65.80000 505.000
65.84000 517.000
65.88000 491.000
65.92000 492.000
65.96000 526.000
66.00000 499.000
66.04000 522.000
66.08000 505.000
66.12000 497.000
66.16000 478.000
66.20000 533.000
66.24000 478.000
66.28000 450.000
66.32000 504.000
66.36000 517.000
66.40000 480.000
66.44000 484.000
66.48000 518.000
66.52000 485.000
66.56000 495.000
66.60000 484.000
66.64000 546.000
66.68000 461.000
66.72000 492.000
66.76000 497.000
66.80000 521.000
66.84000 466.000
66.88000 485.000
66.92000 473.000
66.96000 510.000
67.00000 474.000
67.04000 523.000
67.08000 502.000
67.12000 502.000
67.16000 501.000
67.20000 490.000
67.24000 450.000
67.28000 486.000
67.32000 474.000
67.36000 475.000
67.40000 508.000
67.44000 494.000
67.48000 497.000
67.52000 498.000
67.56000 489.000
67.60000 474.000
67.64000 500.000
67.68000 492.000
67.72000 490.000
67.76000 462.000
67.80000 498.000
67.84000 479.000
67.88000 456.000
67.92000 484.000
67.96000 477.000
68.00000 456.000
68.04000 468.000
68.08000 445.000
68.12000 456.000
68.16000 479.000
68.20000 472.000
68.24000 483.000
68.28000 489.000
68.32000 490.000
68.36000 453.000
68.40000 525.000
68.44000 504.000
68.48000 524.000
68.52000 572.000
68.56000 537.000
68.60000 545.000
68.64000 537.000
68.68000 604.000
68.72000 551.000
68.76000 536.000
68.80000 529.000
68.84000 483.000
68.88000 480.000
68.92000 504.000
68.96000 476.000
69.00000 454.000
69.04000 487.000
69.08000 487.000
69.12000 450.000
69.16000 476.000
69.20000 477.000
69.24000 490.000
69.28000 445.000
69.32000 477.000
69.36000 417.000
69.40000 465.000
69.44000 460.000
69.48000 441.000
69.52000 444.000
69.56000 460.000
69.60000 440.000
69.64000 494.000
69.68000 491.000
69.72000 473.000
69.76000 474.000
69.80000 473.000
69.84000 454.000
69.88000 396.000
69.92000 421.000
