10.0000 134.0000
10.0200 130.0000
10.0400 144.0000
10.0600 129.0000
10.0800 130.0000
10.1000 114.0000
10.1200 111.0000
10.1400 118.0000
10.1600 126.0000
10.1800 126.0000
10.2000 134.0000
10.2200 121.0000
10.2400 124.0000
10.2600 148.0000
10.2800 115.0000
10.3000 125.0000
10.3200 125.0000
10.3400 133.0000
10.3600 106.0000
10.3800 129.0000
10.4000 108.0000
10.4200 118.0000
10.4400 143.0000
10.4600 124.0000
10.4800 121.0000
10.5000 124.0000
10.5200 120.0000
10.5400 137.0000
10.5600 112.0000
10.5800 129.0000
10.6000 136.0000
10.6200 130.0000
10.6400 117.0000
10.6600 124.0000
10.6800 127.0000
10.7000 126.0000
10.7200 122.0000
10.7400 118.0000
10.7600 111.0000
10.7800 122.0000
10.8000 118.0000
10.8200 137.0000
10.8400 128.0000
10.8600 111.0000
10.8800 130.0000
10.9000 140.0000
10.9200 140.0000
10.9400 106.0000
10.9600 129.0000
10.9800 113.0000
11.0000 122.0000
11.0200 102.0000
11.0400 145.0000
11.0600 107.0000
11.0800 136.0000
11.1000 100.0000
11.1200 139.0000
11.1400 138.0000
11.1600 122.0000
11.1800 117.0000
11.2000 111.0000
11.2200 121.0000
11.2400 120.0000
11.2600 120.0000
11.2800 125.0000
11.3000 115.0000
11.3200 101.0000
11.3400 111.0000
11.3600 138.0000
11.3800 119.0000
11.4000 111.0000
11.4200 113.0000
11.4400 138.0000
11.4600 125.0000
11.4800 122.0000
11.5000 132.0000
11.5200 114.0000
11.5400 115.0000
11.5600 128.0000
11.5800 134.0000
11.6000 121.0000
11.6200 111.0000
11.6400 129.0000
11.6600 122.0000
11.6800 125.0000
11.7000 93.0000
11.7200 148.0000
11.7400 131.0000
11.7600 94.0000
11.7800 137.0000
11.8000 110.0000
11.8200 135.0000
11.8400 131.0000
11.8600 123.0000
11.8800 125.0000
11.9000 133.0000
11.9200 137.0000
11.9400 114.0000
11.9600 134.0000
11.9800 139.0000
12.0000 129.0000
12.0200 124.0000
12.0400 126.0000
12.0600 134.0000
12.0800 129.0000
12.1000 148.0000
12.1200 135.0000
12.1400 138.0000
12.1600 120.0000
12.1800 136.0000
12.2000 133.0000
12.2200 144.0000
12.2400 139.0000
12.2600 156.0000
12.2800 146.0000
12.3000 144.0000
12.3200 150.0000
12.3400 134.0000
12.3600 158.0000
12.3800 145.0000
12.4000 143.0000
12.4200 127.0000
12.4400 145.0000
12.4600 129.0000
12.4800 122.0000
12.5000 129.0000
12.5200 130.0000
12.5400 116.0000
12.5600 121.0000
12.5800 114.0000
12.6000 132.0000
12.6200 98.0000
12.6400 111.0000
12.6600 108.0000
12.6800 150.0000
12.7000 112.0000
12.7200 119.0000
12.7400 131.0000
12.7600 139.0000
12.7800 125.0000
12.8000 117.0000
12.8200 108.0000
12.8400 110.0000
12.8600 130.0000
12.8800 128.0000
12.9000 148.0000
12.9200 128.0000
12.9400 118.0000
12.9600 105.0000
12.9800 116.0000
13.0000 123.0000
13.0200 128.0000
13.0400 136.0000
13.0600 132.0000
13.0800 108.0000
13.1000 126.0000
13.1200 125.0000
13.1400 109.0000
13.1600 132.0000
13.1800 132.0000
13.2000 106.0000
13.2200 131.0000
13.2400 113.0000
13.2600 125.0000
13.2800 139.0000
13.3000 131.0000
13.3200 135.0000
13.3400 105.0000
13.3600 92.0000
13.3800 128.0000
13.4000 129.0000
13.4200 103.0000
13.4400 116.0000
13.4600 122.0000
13.4800 114.0000
13.5000 122.0000
13.5200 109.0000
13.5400 100.0000
13.5600 120.0000
13.5800 124.0000
13.6000 132.0000
13.6200 105.0000
13.6400 116.0000
13.6600 110.0000
13.6800 112.0000
13.7000 109.0000
13.7200 126.0000
13.7400 120.0000
13.7600 111.0000
13.7800 116.0000
13.8000 111.0000
13.8200 132.0000
13.8400 92.0000
13.8600 111.0000
13.8800 120.0000
13.9000 111.0000
13.9200 117.0000
13.9400 111.0000
13.9600 126.0000
13.9800 121.0000
14.0000 128.0000
14.0200 120.0000
14.0400 112.0000
14.0600 128.0000
14.0800 100.0000
14.1000 130.0000
14.1200 130.0000
14.1400 108.0000
14.1600 119.0000
14.1800 120.0000
14.2000 115.0000
14.2200 137.0000
14.2400 118.0000
14.2600 140.0000
14.2800 128.0000
14.3000 120.0000
14.3200 123.0000
14.3400 108.0000
14.3600 126.0000
14.3800 108.0000
14.4000 125.0000
14.4200 141.0000
14.4400 128.0000
14.4600 127.0000
14.4800 144.0000
14.5000 137.0000
14.5200 119.0000
14.5400 130.0000
14.5600 135.0000
14.5800 130.0000
14.6000 141.0000
14.6200 143.0000
14.6400 133.0000
14.6600 143.0000
14.6800 141.0000
14.7000 154.0000
14.7200 172.0000
14.7400 174.0000
14.7600 178.0000
14.7800 187.0000
14.8000 215.0000
14.8200 198.0000
14.8400 194.0000
14.8600 212.0000
14.8800 196.0000
14.9000 194.0000
14.9200 210.0000
14.9400 210.0000
14.9600 190.0000
14.9800 227.0000
15.0000 242.0000
15.0200 216.0000
15.0400 251.0000
15.0600 223.0000
15.0800 248.0000
15.1000 201.0000
15.1200 220.0000
15.1400 206.0000
15.1600 185.0000
15.1800 182.0000
15.2000 153.0000
15.2200 169.0000
15.2400 146.0000
15.2600 148.0000
15.2800 140.0000
15.3000 142.0000
15.3200 141.0000
15.3400 144.0000
15.3600 139.0000
15.3800 145.0000
15.4000 124.0000
15.4200 124.0000
15.4400 118.0000
15.4600 123.0000
15.4800 126.0000
15.5000 124.0000
15.5200 134.0000
15.5400 135.0000
15.5600 124.0000
15.5800 118.0000
15.6000 121.0000
15.6200 125.0000
15.6400 125.0000
15.6600 131.0000
15.6800 124.0000
15.7000 139.0000
15.7200 118.0000
15.7400 103.0000
15.7600 147.0000
15.7800 123.0000
15.8000 136.0000
15.8200 125.0000
15.8400 130.0000
15.8600 123.0000
15.8800 118.0000
15.9000 120.0000
15.9200 104.0000
15.9400 123.0000
15.9600 128.0000
15.9800 138.0000
16.0000 137.0000
16.0200 148.0000
16.0400 131.0000
16.0600 117.0000
16.0800 123.0000
16.1000 116.0000
16.1200 138.0000
16.1400 117.0000
16.1600 136.0000
16.1800 121.0000
16.2000 110.0000
16.2200 125.0000
16.2400 130.0000
16.2600 116.0000
16.2800 137.0000
16.3000 116.0000
16.3200 118.0000
16.3400 127.0000
16.3600 117.0000
16.3800 108.0000
16.4000 126.0000
16.4200 114.0000
16.4400 136.0000
16.4600 150.0000
16.4800 142.0000
16.5000 126.0000
16.5200 121.0000
16.5400 135.0000
16.5600 102.0000
16.5800 107.0000
16.6000 136.0000
16.6200 130.0000
16.6400 142.0000
16.6600 140.0000
16.6800 140.0000
16.7000 135.0000
16.7200 139.0000
16.7400 144.0000
16.7600 124.0000
16.7800 127.0000
16.8000 144.0000
16.8200 123.0000
16.8400 130.0000
16.8600 129.0000
16.8800 148.0000
16.9000 139.0000
16.9200 141.0000
16.9400 158.0000
16.9600 175.0000
16.9800 145.0000
17.0000 147.0000
17.0200 137.0000
17.0400 177.0000
17.0600 170.0000
17.0800 178.0000
17.1000 215.0000
17.1200 211.0000
17.1400 202.0000
17.1600 197.0000
17.1800 250.0000
17.2000 222.0000
17.2200 228.0000
17.2400 228.0000
17.2600 212.0000
17.2800 188.0000
17.3000 179.0000
17.3200 176.0000
17.3400 154.0000
17.3600 160.0000
17.3800 146.0000
17.4000 142.0000
17.4200 127.0000
17.4400 149.0000
17.4600 148.0000
17.4800 130.0000
17.5000 145.0000
17.5200 143.0000
17.5400 154.0000
17.5600 151.0000
17.5800 160.0000
17.6000 137.0000
17.6200 131.0000
17.6400 135.0000
17.6600 147.0000
17.6800 150.0000
17.7000 172.0000
17.7200 164.0000
17.7400 146.0000
17.7600 154.0000
17.7800 143.0000
17.8000 157.0000
17.8200 151.0000
17.8400 166.0000
17.8600 132.0000
17.8800 155.0000
17.9000 139.0000
17.9200 147.0000
17.9400 138.0000
17.9600 135.0000
17.9800 161.0000
18.0000 126.0000
18.0200 132.0000
18.0400 126.0000
18.0600 168.0000
18.0800 158.0000
18.1000 155.0000
18.1200 164.0000
18.1400 181.0000
18.1600 142.0000
18.1800 138.0000
18.2000 168.0000
18.2200 146.0000
18.2400 140.0000
18.2600 163.0000
18.2800 152.0000
18.3000 160.0000
18.3200 139.0000
18.3400 143.0000
18.3600 147.0000
18.3800 143.0000
18.4000 141.0000
18.4200 132.0000
18.4400 164.0000
18.4600 157.0000
18.4800 150.0000
18.5000 162.0000
18.5200 153.0000
18.5400 136.0000
18.5600 182.0000
18.5800 154.0000
18.6000 153.0000
18.6200 140.0000
18.6400 147.0000
18.6600 160.0000
18.6800 146.0000
18.7000 166.0000
18.7200 140.0000
18.7400 148.0000
18.7600 158.0000
18.7800 158.0000
18.8000 157.0000
18.8200 149.0000
18.8400 163.0000
18.8600 184.0000
18.8800 177.0000
18.9000 145.0000
18.9200 167.0000
18.9400 147.0000
18.9600 149.0000
18.9800 153.0000
19.0000 142.0000
19.0200 152.0000
19.0400 175.0000
19.0600 152.0000
19.0800 185.0000
19.1000 176.0000
19.1200 160.0000
19.1400 163.0000
19.1600 161.0000
19.1800 171.0000
19.2000 137.0000
19.2200 162.0000
19.2400 152.0000
19.2600 164.0000
19.2800 150.0000
19.3000 179.0000
19.3200 170.0000
19.3400 149.0000
19.3600 148.0000
19.3800 147.0000
19.4000 170.0000
19.4200 168.0000
19.4400 152.0000
19.4600 164.0000
19.4800 182.0000
19.5000 165.0000
19.5200 168.0000
19.5400 180.0000
19.5600 159.0000
19.5800 168.0000
19.6000 145.0000
19.6200 159.0000
19.6400 182.0000
19.6600 147.0000
19.6800 180.0000
19.7000 151.0000
19.7200 169.0000
19.7400 189.0000
19.7600 171.0000
19.7800 167.0000
19.8000 167.0000
19.8200 165.0000
19.8400 187.0000
19.8600 170.0000
19.8800 178.0000
19.9000 193.0000
19.9200 160.0000
19.9400 172.0000
19.9600 187.0000
19.9800 153.0000
20.0000 193.0000
20.0200 165.0000
20.0400 179.0000
20.0600 183.0000
20.0800 177.0000
20.1000 156.0000
20.1200 196.0000
20.1400 158.0000
20.1600 187.0000
20.1800 191.0000
20.2000 171.0000
20.2200 179.0000
20.2400 186.0000
20.2600 168.0000
20.2800 162.0000
20.3000 180.0000
20.3200 186.0000
20.3400 181.0000
20.3600 180.0000
20.3800 175.0000
20.4000 192.0000
20.4200 160.0000
20.4400 180.0000
20.4600 179.0000
20.4800 199.0000
20.5000 203.0000
20.5200 192.0000
20.5400 174.0000
20.5600 170.0000
20.5800 195.0000
20.6000 225.0000
20.6200 187.0000
20.6400 196.0000
20.6600 208.0000
20.6800 202.0000
20.7000 174.0000
20.7200 202.0000
20.7400 175.0000
20.7600 191.0000
20.7800 172.0000
20.8000 214.0000
20.8200 170.0000
20.8400 176.0000
20.8600 214.0000
20.8800 175.0000
20.9000 197.0000
20.9200 206.0000
20.9400 219.0000
20.9600 191.0000
20.9800 193.0000
21.0000 232.0000
21.0200 216.0000
21.0400 210.0000
21.0600 210.0000
21.0800 201.0000
21.1000 198.0000
21.1200 202.0000
21.1400 198.0000
21.1600 205.0000
21.1800 192.0000
21.2000 200.0000
21.2200 196.0000
21.2400 186.0000
21.2600 186.0000
21.2800 183.0000
21.3000 211.0000
21.3200 185.0000
21.3400 215.0000
21.3600 195.0000
21.3800 209.0000
21.4000 187.0000
21.4200 178.0000
21.4400 175.0000
21.4600 195.0000
21.4800 186.0000
21.5000 201.0000
21.5200 211.0000
21.5400 214.0000
21.5600 196.0000
21.5800 216.0000
21.6000 180.0000
21.6200 199.0000
21.6400 205.0000
21.6600 197.0000
21.6800 192.0000
21.7000 215.0000
21.7200 193.0000
21.7400 202.0000
21.7600 200.0000
21.7800 177.0000
21.8000 223.0000
21.8200 209.0000
21.8400 210.0000
21.8600 196.0000
21.8800 202.0000
21.9000 186.0000
21.9200 194.0000
21.9400 245.0000
21.9600 212.0000
21.9800 198.0000
22.0000 204.0000
22.0200 200.0000
22.0400 209.0000
22.0600 219.0000
22.0800 207.0000
22.1000 199.0000
22.1200 197.0000
22.1400 194.0000
22.1600 198.0000
22.1800 198.0000
22.2000 228.0000
22.2200 205.0000
22.2400 193.0000
22.2600 199.0000
22.2800 205.0000
22.3000 195.0000
22.3200 234.0000
22.3400 224.0000
22.3600 209.0000
22.3800 220.0000
22.4000 220.0000
22.4200 197.0000
22.4400 217.0000
22.4600 193.0000
22.4800 191.0000
22.5000 213.0000
22.5200 210.0000
22.5400 191.0000
22.5600 237.0000
22.5800 204.0000
22.6000 205.0000
22.6200 192.0000
22.6400 196.0000
22.6600 210.0000
22.6800 239.0000
22.7000 238.0000
22.7200 230.0000
22.7400 224.0000
22.7600 211.0000
22.7800 232.0000
22.8000 197.0000
22.8200 217.0000
22.8400 197.0000
22.8600 199.0000
22.8800 217.0000
22.9000 247.0000
22.9200 229.0000
22.9400 241.0000
22.9600 214.0000
22.9800 228.0000
23.0000 224.0000
23.0200 213.0000
23.0400 213.0000
23.0600 189.0000
23.0800 188.0000
23.1000 214.0000
23.1200 211.0000
23.1400 214.0000
23.1600 206.0000
23.1800 194.0000
23.2000 195.0000
23.2200 244.0000
23.2400 215.0000
23.2600 260.0000
23.2800 246.0000
23.3000 223.0000
23.3200 214.0000
23.3400 214.0000
23.3600 254.0000
23.3800 193.0000
23.4000 209.0000
23.4200 227.0000
23.4400 245.0000
23.4600 224.0000
23.4800 206.0000
23.5000 242.0000
23.5200 222.0000
23.5400 225.0000
23.5600 238.0000
23.5800 208.0000
23.6000 203.0000
23.6200 205.0000
23.6400 237.0000
23.6600 246.0000
23.6800 217.0000
23.7000 237.0000
23.7200 237.0000
23.7400 235.0000
23.7600 253.0000
23.7800 257.0000
23.8000 262.0000
23.8200 260.0000
23.8400 255.0000
23.8600 233.0000
23.8800 257.0000
23.9000 227.0000
23.9200 214.0000
23.9400 245.0000
23.9600 266.0000
23.9800 234.0000
24.0000 252.0000
24.0200 252.0000
24.0400 253.0000
24.0600 238.0000
24.0800 251.0000
24.1000 260.0000
24.1200 272.0000
24.1400 245.0000
24.1600 227.0000
24.1800 264.0000
24.2000 256.0000
24.2200 284.0000
24.2400 247.0000
24.2600 236.0000
24.2800 220.0000
24.3000 259.0000
24.3200 222.0000
24.3400 237.0000
24.3600 206.0000
24.3800 255.0000
24.4000 215.0000
24.4200 249.0000
24.4400 224.0000
24.4600 210.0000
24.4800 223.0000
24.5000 248.0000
24.5200 265.0000
24.5400 207.0000
24.5600 213.0000
24.5800 264.0000
24.6000 238.0000
24.6200 249.0000
24.6400 229.0000
24.6600 217.0000
24.6800 250.0000
24.7000 237.0000
24.7200 288.0000
24.7400 237.0000
24.7600 244.0000
24.7800 273.0000
24.8000 232.0000
24.8200 259.0000
24.8400 279.0000
24.8600 298.0000
24.8800 258.0000
24.9000 287.0000
24.9200 287.0000
24.9400 283.0000
24.9600 248.0000
24.9800 284.0000
25.0000 280.0000
25.0200 255.0000
25.0400 235.0000
25.0600 284.0000
25.0800 250.0000
25.1000 262.0000
25.1200 250.0000
25.1400 248.0000
25.1600 267.0000
25.1800 252.0000
25.2000 255.0000
25.2200 273.0000
25.2400 244.0000
25.2600 274.0000
25.2800 281.0000
25.3000 269.0000
25.3200 280.0000
25.3400 280.0000
25.3600 274.0000
25.3800 269.0000
25.4000 300.0000
25.4200 260.0000
25.4400 280.0000
25.4600 258.0000
25.4800 293.0000
25.5000 318.0000
25.5200 287.0000
25.5400 311.0000
25.5600 302.0000
25.5800 298.0000
25.6000 321.0000
25.6200 308.0000
25.6400 371.0000
25.6600 368.0000
25.6800 401.0000
25.7000 436.0000
25.7200 450.0000
25.7400 478.0000
25.7600 460.0000
25.7800 579.0000
25.8000 580.0000
25.8200 689.0000
25.8400 739.0000
25.8600 841.0000
25.8800 938.0000
25.9000 1040.0000
25.9200 1131.0000
25.9400 1131.0000
25.9600 1074.0000
25.9800 1034.0000
26.0000 920.0000
26.0200 817.0000
26.0400 698.0000
26.0600 636.0000
26.0800 594.0000
26.1000 482.0000
26.1200 446.0000
26.1400 417.0000
26.1600 369.0000
26.1800 339.0000
26.2000 362.0000
26.2200 322.0000
26.2400 312.0000
26.2600 327.0000
26.2800 341.0000
26.3000 348.0000
26.3200 351.0000
26.3400 350.0000
26.3600 323.0000
26.3800 310.0000
26.4000 320.0000
26.4200 314.0000
26.4400 310.0000
26.4600 266.0000
26.4800 284.0000
26.5000 259.0000
26.5200 234.0000
26.5400 261.0000
26.5600 209.0000
26.5800 225.0000
26.6000 209.0000
26.6200 255.0000
26.6400 257.0000
26.6600 225.0000
26.6800 199.0000
26.7000 174.0000
26.7200 233.0000
26.7400 197.0000
26.7600 236.0000
26.7800 221.0000
26.8000 209.0000
26.8200 221.0000
26.8400 205.0000
26.8600 227.0000
26.8800 182.0000
26.9000 219.0000
26.9200 208.0000
26.9400 210.0000
26.9600 216.0000
26.9800 243.0000
27.0000 210.0000
27.0200 209.0000
27.0400 197.0000
27.0600 211.0000
27.0800 223.0000
27.1000 225.0000
27.1200 190.0000
27.1400 224.0000
27.1600 197.0000
27.1800 211.0000
27.2000 198.0000
27.2200 216.0000
27.2400 205.0000
27.2600 223.0000
27.2800 216.0000
27.3000 200.0000
27.3200 204.0000
27.3400 216.0000
27.3600 209.0000
27.3800 191.0000
27.4000 186.0000
27.4200 214.0000
27.4400 198.0000
27.4600 217.0000
27.4800 210.0000
27.5000 216.0000
27.5200 190.0000
27.5400 193.0000
27.5600 237.0000
27.5800 216.0000
27.6000 208.0000
27.6200 213.0000
27.6400 207.0000
27.6600 239.0000
27.6800 194.0000
27.7000 218.0000
27.7200 214.0000
27.7400 221.0000
27.7600 202.0000
27.7800 207.0000
27.8000 238.0000
27.8200 201.0000
27.8400 210.0000
27.8600 214.0000
27.8800 188.0000
27.9000 187.0000
27.9200 226.0000
27.9400 206.0000
27.9600 199.0000
27.9800 212.0000
28.0000 230.0000
28.0200 206.0000
28.0400 220.0000
28.0600 235.0000
28.0800 227.0000
28.1000 228.0000
28.1200 238.0000
28.1400 228.0000
28.1600 230.0000
28.1800 230.0000
28.2000 268.0000
28.2200 214.0000
28.2400 217.0000
28.2600 243.0000
28.2800 206.0000
28.3000 205.0000
28.3200 225.0000
28.3400 229.0000
28.3600 226.0000
28.3800 213.0000
28.4000 226.0000
28.4200 201.0000
28.4400 219.0000
28.4600 233.0000
28.4800 229.0000
28.5000 252.0000
28.5200 211.0000
28.5400 219.0000
28.5600 194.0000
28.5800 220.0000
28.6000 234.0000
28.6200 216.0000
28.6400 185.0000
28.6600 223.0000
28.6800 199.0000
28.7000 180.0000
28.7200 202.0000
28.7400 207.0000
28.7600 189.0000
28.7800 219.0000
28.8000 208.0000
28.8200 218.0000
28.8400 191.0000
28.8600 198.0000
28.8800 195.0000
28.9000 183.0000
28.9200 194.0000
28.9400 209.0000
28.9600 208.0000
28.9800 180.0000
29.0000 186.0000
29.0200 173.0000
29.0400 210.0000
29.0600 186.0000
29.0800 189.0000
29.1000 180.0000
29.1200 207.0000
29.1400 183.0000
29.1600 196.0000
29.1800 167.0000
29.2000 177.0000
29.2200 187.0000
29.2400 180.0000
29.2600 178.0000
29.2800 174.0000
29.3000 192.0000
29.3200 172.0000
29.3400 186.0000
29.3600 190.0000
29.3800 200.0000
29.4000 216.0000
29.4200 210.0000
29.4400 197.0000
29.4600 174.0000
29.4800 163.0000
29.5000 197.0000
29.5200 201.0000
29.5400 184.0000
29.5600 188.0000
29.5800 174.0000
29.6000 188.0000
29.6200 190.0000
29.6400 199.0000
29.6600 188.0000
29.6800 224.0000
29.7000 194.0000
29.7200 192.0000
29.7400 196.0000
29.7600 217.0000
29.7800 234.0000
29.8000 244.0000
29.8200 210.0000
29.8400 245.0000
29.8600 239.0000
29.8800 247.0000
29.9000 231.0000
29.9200 246.0000
29.9400 233.0000
29.9600 238.0000
29.9800 216.0000
30.0000 246.0000
30.0200 223.0000
30.0400 215.0000
30.0600 211.0000
30.0800 259.0000
30.1000 199.0000
30.1200 220.0000
30.1400 218.0000
30.1600 208.0000
30.1800 194.0000
30.2000 204.0000
30.2200 229.0000
30.2400 225.0000
30.2600 214.0000
30.2800 221.0000
30.3000 208.0000
30.3200 241.0000
30.3400 228.0000
30.3600 257.0000
30.3800 286.0000
30.4000 274.0000
30.4200 291.0000
30.4400 280.0000
30.4600 308.0000
30.4800 331.0000
30.5000 279.0000
30.5200 299.0000
30.5400 274.0000
30.5600 252.0000
30.5800 263.0000
30.6000 231.0000
30.6200 209.0000
30.6400 224.0000
30.6600 232.0000
30.6800 231.0000
30.7000 191.0000
30.7200 207.0000
30.7400 207.0000
30.7600 184.0000
30.7800 180.0000
30.8000 188.0000
30.8200 227.0000
30.8400 178.0000
30.8600 150.0000
30.8800 198.0000
30.9000 193.0000
30.9200 198.0000
30.9400 167.0000
30.9600 202.0000
30.9800 199.0000
31.0000 188.0000
31.0200 166.0000
31.0400 203.0000
31.0600 183.0000
31.0800 179.0000
31.1000 192.0000
31.1200 183.0000
31.1400 204.0000
31.1600 190.0000
31.1800 185.0000
31.2000 159.0000
31.2200 185.0000
31.2400 176.0000
31.2600 189.0000
31.2800 189.0000
31.3000 175.0000
31.3200 190.0000
31.3400 183.0000
31.3600 191.0000
31.3800 190.0000
31.4000 165.0000
31.4200 165.0000
31.4400 191.0000
31.4600 180.0000
31.4800 174.0000
31.5000 208.0000
31.5200 178.0000
31.5400 150.0000
31.5600 197.0000
31.5800 188.0000
31.6000 168.0000
31.6200 178.0000
31.6400 174.0000
31.6600 151.0000
31.6800 138.0000
31.7000 172.0000
31.7200 175.0000
31.7400 169.0000
31.7600 151.0000
31.7800 174.0000
31.8000 152.0000
31.8200 161.0000
31.8400 178.0000
31.8600 173.0000
31.8800 146.0000
31.9000 160.0000
31.9200 146.0000
31.9400 164.0000
31.9600 175.0000
31.9800 165.0000
32.0000 140.0000
32.0200 150.0000
32.0400 167.0000
32.0600 164.0000
32.0800 147.0000
32.1000 155.0000
32.1200 155.0000
32.1400 153.0000
32.1600 177.0000
32.1800 189.0000
32.2000 166.0000
32.2200 168.0000
32.2400 171.0000
32.2600 175.0000
32.2800 171.0000
32.3000 152.0000
32.3200 161.0000
32.3400 141.0000
32.3600 159.0000
32.3800 166.0000
32.4000 151.0000
32.4200 131.0000
32.4400 172.0000
32.4600 160.0000
32.4800 144.0000
32.5000 140.0000
32.5200 163.0000
32.5400 162.0000
32.5600 135.0000
32.5800 151.0000
32.6000 160.0000
32.6200 178.0000
32.6400 151.0000
32.6600 136.0000
32.6800 134.0000
32.7000 157.0000
32.7200 178.0000
32.7400 126.0000
32.7600 170.0000
32.7800 153.0000
32.8000 155.0000
32.8200 143.0000
32.8400 165.0000
32.8600 153.0000
32.8800 174.0000
32.9000 150.0000
32.9200 152.0000
32.9400 164.0000
32.9600 154.0000
32.9800 165.0000
33.0000 150.0000
33.0200 143.0000
33.0400 149.0000
33.0600 149.0000
33.0800 169.0000
33.1000 133.0000
33.1200 133.0000
33.1400 174.0000
33.1600 156.0000
33.1800 146.0000
33.2000 146.0000
33.2200 147.0000
33.2400 141.0000
33.2600 123.0000
33.2800 150.0000
33.3000 143.0000
33.3200 125.0000
33.3400 147.0000
33.3600 137.0000
33.3800 160.0000
33.4000 182.0000
33.4200 156.0000
33.4400 155.0000
33.4600 137.0000
33.4800 168.0000
33.5000 154.0000
33.5200 160.0000
33.5400 142.0000
33.5600 165.0000
33.5800 166.0000
33.6000 167.0000
33.6200 168.0000
33.6400 183.0000
33.6600 156.0000
33.6800 155.0000
33.7000 167.0000
33.7200 172.0000
33.7400 175.0000
33.7600 154.0000
33.7800 168.0000
33.8000 165.0000
33.8200 159.0000
33.8400 163.0000
33.8600 163.0000
33.8800 182.0000
33.9000 163.0000
33.9200 143.0000
33.9400 152.0000
33.9600 163.0000
33.9800 148.0000
34.0000 168.0000
34.0200 165.0000
34.0400 172.0000
34.0600 149.0000
34.0800 124.0000
34.1000 154.0000
34.1200 148.0000
34.1400 153.0000
34.1600 131.0000
34.1800 151.0000
34.2000 142.0000
34.2200 138.0000
34.2400 125.0000
34.2600 136.0000
34.2800 128.0000
34.3000 147.0000
34.3200 125.0000
34.3400 129.0000
34.3600 162.0000
34.3800 144.0000
34.4000 137.0000
34.4200 161.0000
34.4400 129.0000
34.4600 137.0000
34.4800 138.0000
34.5000 156.0000
34.5200 155.0000
34.5400 151.0000
34.5600 150.0000
34.5800 145.0000
34.6000 117.0000
34.6200 128.0000
34.6400 143.0000
34.6600 129.0000
34.6800 137.0000
34.7000 133.0000
34.7200 128.0000
34.7400 138.0000
34.7600 143.0000
34.7800 114.0000
34.8000 126.0000
34.8200 133.0000
34.8400 136.0000
34.8600 135.0000
34.8800 150.0000
34.9000 114.0000
34.9200 130.0000
34.9400 126.0000
34.9600 132.0000
34.9800 129.0000
35.0000 142.0000
35.0200 114.0000
35.0400 132.0000
35.0600 127.0000
35.0800 114.0000
35.1000 128.0000
35.1200 146.0000
35.1400 132.0000
35.1600 130.0000
35.1800 130.0000
35.2000 100.0000
35.2200 142.0000
35.2400 123.0000
35.2600 114.0000
35.2800 104.0000
35.3000 117.0000
35.3200 142.0000
35.3400 112.0000
35.3600 105.0000
35.3800 116.0000
35.4000 126.0000
35.4200 107.0000
35.4400 118.0000
35.4600 120.0000
35.4800 126.0000
35.5000 119.0000
35.5200 120.0000
35.5400 113.0000
35.5600 125.0000
35.5800 125.0000
35.6000 104.0000
35.6200 107.0000
35.6400 95.0000
35.6600 126.0000
35.6800 126.0000
35.7000 127.0000
35.7200 117.0000
35.7400 112.0000
35.7600 103.0000
35.7800 107.0000
35.8000 101.0000
35.8200 120.0000
35.8400 113.0000
35.8600 102.0000
35.8800 121.0000
35.9000 103.0000
35.9200 109.0000
35.9400 108.0000
35.9600 116.0000
35.9800 119.0000
36.0000 110.0000
36.0200 121.0000
36.0400 126.0000
36.0600 111.0000
36.0800 119.0000
36.1000 108.0000
36.1200 97.0000
36.1400 108.0000
36.1600 126.0000
36.1800 98.0000
36.2000 109.0000
36.2200 115.0000
36.2400 114.0000
36.2600 93.0000
36.2800 116.0000
36.3000 113.0000
36.3200 110.0000
36.3400 116.0000
36.3600 97.0000
36.3800 111.0000
36.4000 129.0000
36.4200 106.0000
36.4400 111.0000
36.4600 106.0000
36.4800 115.0000
36.5000 84.0000
36.5200 118.0000
36.5400 103.0000
36.5600 105.0000
36.5800 119.0000
36.6000 114.0000
36.6200 128.0000
36.6400 103.0000
36.6600 96.0000
36.6800 114.0000
36.7000 113.0000
36.7200 102.0000
36.7400 114.0000
36.7600 103.0000
36.7800 110.0000
36.8000 137.0000
36.8200 97.0000
36.8400 113.0000
36.8600 122.0000
36.8800 98.0000
36.9000 111.0000
36.9200 111.0000
36.9400 122.0000
36.9600 105.0000
36.9800 96.0000
37.0000 110.0000
37.0200 121.0000
37.0400 121.0000
37.0600 123.0000
37.0800 135.0000
37.1000 113.0000
37.1200 100.0000
37.1400 112.0000
37.1600 124.0000
37.1800 110.0000
37.2000 112.0000
37.2200 113.0000
37.2400 96.0000
37.2600 108.0000
37.2800 85.0000
37.3000 116.0000
37.3200 100.0000
37.3400 94.0000
37.3600 112.0000
37.3800 92.0000
37.4000 105.0000
37.4200 108.0000
37.4400 101.0000
37.4600 112.0000
37.4800 110.0000
37.5000 116.0000
37.5200 99.0000
37.5400 106.0000
37.5600 101.0000
37.5800 104.0000
37.6000 110.0000
37.6200 106.0000
37.6400 96.0000
37.6600 114.0000
37.6800 125.0000
37.7000 116.0000
37.7200 131.0000
37.7400 97.0000
37.7600 115.0000
37.7800 103.0000
37.8000 111.0000
37.8200 119.0000
37.8400 119.0000
37.8600 100.0000
37.8800 112.0000
37.9000 115.0000
37.9200 103.0000
37.9400 86.0000
37.9600 97.0000
37.9800 106.0000
38.0000 116.0000
38.0200 112.0000
38.0400 111.0000
38.0600 108.0000
38.0800 102.0000
38.1000 102.0000
38.1200 89.0000
38.1400 106.0000
38.1600 83.0000
38.1800 85.0000
38.2000 96.0000
38.2200 95.0000
38.2400 99.0000
38.2600 86.0000
38.2800 95.0000
38.3000 102.0000
38.3200 109.0000
38.3400 104.0000
38.3600 96.0000
38.3800 81.0000
38.4000 107.0000
38.4200 92.0000
38.4400 100.0000
38.4600 101.0000
38.4800 86.0000
38.5000 112.0000
38.5200 98.0000
38.5400 110.0000
38.5600 93.0000
38.5800 104.0000
38.6000 92.0000
38.6200 92.0000
38.6400 106.0000
38.6600 104.0000
38.6800 103.0000
38.7000 103.0000
38.7200 99.0000
38.7400 101.0000
38.7600 75.0000
38.7800 97.0000
38.8000 109.0000
38.8200 99.0000
38.8400 127.0000
38.8600 104.0000
38.8800 106.0000
38.9000 98.0000
38.9200 102.0000
38.9400 106.0000
38.9600 90.0000
38.9800 112.0000
39.0000 93.0000
39.0200 104.0000
39.0400 86.0000
39.0600 81.0000
39.0800 81.0000
39.1000 86.0000
39.1200 83.0000
39.1400 123.0000
39.1600 103.0000
39.1800 100.0000
39.2000 113.0000
39.2200 93.0000
39.2400 92.0000
39.2600 82.0000
39.2800 97.0000
39.3000 101.0000
39.3200 85.0000
39.3400 91.0000
39.3600 105.0000
39.3800 93.0000
39.4000 89.0000
39.4200 103.0000
39.4400 94.0000
39.4600 108.0000
39.4800 95.0000
39.5000 103.0000
39.5200 98.0000
39.5400 107.0000
39.5600 106.0000
39.5800 99.0000
39.6000 101.0000
39.6200 98.0000
39.6400 101.0000
39.6600 98.0000
39.6800 72.0000
39.7000 96.0000
39.7200 100.0000
39.7400 92.0000
39.7600 95.0000
39.7800 98.0000
39.8000 85.0000
39.8200 108.0000
39.8400 82.0000
39.8600 98.0000
39.8800 92.0000
39.9000 94.0000
39.9200 106.0000
39.9400 84.0000
39.9600 95.0000
39.9800 96.0000
40.0000 84.0000
40.0200 91.0000
40.0400 87.0000
40.0600 100.0000
40.0800 94.0000
40.1000 110.0000
40.1200 83.0000
40.1400 92.0000
40.1600 91.0000
40.1800 99.0000
40.2000 100.0000
40.2200 102.0000
40.2400 81.0000
40.2600 102.0000
40.2800 95.0000
40.3000 105.0000
40.3200 105.0000
40.3400 84.0000
40.3600 97.0000
40.3800 99.0000
40.4000 91.0000
40.4200 83.0000
40.4400 91.0000
40.4600 110.0000
40.4800 73.0000
40.5000 108.0000
40.5200 84.0000
40.5400 109.0000
40.5600 96.0000
40.5800 91.0000
40.6000 102.0000
40.6200 105.0000
40.6400 85.0000
40.6600 81.0000
40.6800 87.0000
40.7000 89.0000
40.7200 95.0000
40.7400 102.0000
40.7600 83.0000
40.7800 92.0000
40.8000 91.0000
40.8200 89.0000
40.8400 96.0000
40.8600 97.0000
40.8800 89.0000
40.9000 105.0000
40.9200 104.0000
40.9400 91.0000
40.9600 97.0000
40.9800 82.0000
41.0000 112.0000
41.0200 90.0000
41.0400 84.0000
41.0600 99.0000
41.0800 79.0000
41.1000 96.0000
41.1200 93.0000
41.1400 102.0000
41.1600 90.0000
41.1800 89.0000
41.2000 96.0000
41.2200 106.0000
41.2400 92.0000
41.2600 109.0000
41.2800 100.0000
41.3000 108.0000
41.3200 86.0000
41.3400 110.0000
41.3600 93.0000
41.3800 90.0000
41.4000 91.0000
41.4200 93.0000
41.4400 88.0000
41.4600 85.0000
41.4800 97.0000
41.5000 107.0000
41.5200 97.0000
41.5400 97.0000
41.5600 80.0000
41.5800 101.0000
41.6000 88.0000
41.6200 97.0000
41.6400 104.0000
41.6600 85.0000
41.6800 90.0000
41.7000 91.0000
41.7200 102.0000
41.7400 92.0000
41.7600 107.0000
41.7800 112.0000
41.8000 85.0000
41.8200 82.0000
41.8400 102.0000
41.8600 109.0000
41.8800 97.0000
41.9000 100.0000
41.9200 92.0000
41.9400 107.0000
41.9600 123.0000
41.9800 97.0000
42.0000 106.0000
42.0200 98.0000
42.0400 108.0000
42.0600 99.0000
42.0800 80.0000
42.1000 90.0000
42.1200 101.0000
42.1400 82.0000
42.1600 86.0000
42.1800 100.0000
42.2000 99.0000
42.2200 106.0000
42.2400 90.0000
42.2600 94.0000
42.2800 97.0000
42.3000 77.0000
42.3200 94.0000
42.3400 85.0000
42.3600 83.0000
42.3800 120.0000
42.4000 96.0000
42.4200 99.0000
42.4400 115.0000
42.4600 94.0000
42.4800 110.0000
42.5000 102.0000
42.5200 94.0000
42.5400 119.0000
42.5600 109.0000
42.5800 102.0000
42.6000 104.0000
42.6200 120.0000
42.6400 108.0000
42.6600 85.0000
42.6800 101.0000
42.7000 134.0000
42.7200 92.0000
42.7400 105.0000
42.7600 101.0000
42.7800 96.0000
42.8000 112.0000
42.8200 99.0000
42.8400 104.0000
42.8600 92.0000
42.8800 90.0000
42.9000 90.0000
42.9200 98.0000
42.9400 86.0000
42.9600 78.0000
42.9800 96.0000
43.0000 102.0000
43.0200 98.0000
43.0400 98.0000
43.0600 128.0000
43.0800 102.0000
43.1000 117.0000
43.1200 112.0000
43.1400 122.0000
43.1600 143.0000
43.1800 129.0000
43.2000 128.0000
43.2200 111.0000
43.2400 125.0000
43.2600 116.0000
43.2800 110.0000
43.3000 87.0000
43.3200 102.0000
43.3400 108.0000
43.3600 120.0000
43.3800 112.0000
43.4000 114.0000
43.4200 110.0000
43.4400 107.0000
43.4600 105.0000
43.4800 115.0000
43.5000 93.0000
43.5200 111.0000
43.5400 91.0000
43.5600 105.0000
43.5800 89.0000
43.6000 101.0000
43.6200 103.0000
43.6400 99.0000
43.6600 94.0000
43.6800 106.0000
43.7000 96.0000
43.7200 108.0000
43.7400 109.0000
43.7600 103.0000
43.7800 79.0000
43.8000 94.0000
43.8200 117.0000
43.8400 101.0000
43.8600 109.0000
43.8800 105.0000
43.9000 98.0000
43.9200 102.0000
43.9400 87.0000
43.9600 104.0000
43.9800 106.0000
44.0000 122.0000
44.0200 105.0000
44.0400 108.0000
44.0600 99.0000
44.0800 116.0000
44.1000 97.0000
44.1200 101.0000
44.1400 89.0000
44.1600 86.0000
44.1800 85.0000
44.2000 108.0000
44.2200 81.0000
44.2400 105.0000
44.2600 86.0000
44.2800 82.0000
44.3000 102.0000
44.3200 97.0000
44.3400 103.0000
44.3600 87.0000
44.3800 89.0000
44.4000 87.0000
44.4200 79.0000
44.4400 85.0000
44.4600 93.0000
44.4800 90.0000
44.5000 76.0000
44.5200 77.0000
44.5400 76.0000
44.5600 99.0000
44.5800 93.0000
44.6000 108.0000
44.6200 112.0000
44.6400 108.0000
44.6600 104.0000
44.6800 90.0000
44.7000 94.0000
44.7200 104.0000
44.7400 99.0000
44.7600 102.0000
44.7800 100.0000
44.8000 73.0000
44.8200 96.0000
44.8400 82.0000
44.8600 102.0000
44.8800 99.0000
44.9000 97.0000
44.9200 114.0000
44.9400 98.0000
44.9600 97.0000
44.9800 69.0000
45.0000 96.0000
45.0200 100.0000
45.0400 100.0000
45.0600 105.0000
45.0800 108.0000
45.1000 90.0000
45.1200 91.0000
45.1400 91.0000
45.1600 97.0000
45.1800 97.0000
45.2000 93.0000
45.2200 87.0000
45.2400 80.0000
45.2600 104.0000
45.2800 98.0000
45.3000 108.0000
45.3200 116.0000
45.3400 99.0000
45.3600 102.0000
45.3800 114.0000
45.4000 111.0000
45.4200 106.0000
45.4400 107.0000
45.4600 89.0000
45.4800 114.0000
45.5000 93.0000
45.5200 103.0000
45.5400 109.0000
45.5600 107.0000
45.5800 96.0000
45.6000 102.0000
45.6200 118.0000
45.6400 105.0000
45.6600 135.0000
45.6800 97.0000
45.7000 117.0000
45.7200 96.0000
45.7400 109.0000
45.7600 101.0000
45.7800 112.0000
45.8000 117.0000
45.8200 105.0000
45.8400 107.0000
45.8600 86.0000
45.8800 93.0000
45.9000 107.0000
45.9200 90.0000
45.9400 122.0000
45.9600 108.0000
45.9800 84.0000
46.0000 95.0000
46.0200 88.0000
46.0400 85.0000
46.0600 84.0000
46.0800 95.0000
46.1000 99.0000
46.1200 98.0000
46.1400 80.0000
46.1600 90.0000
46.1800 99.0000
46.2000 82.0000
46.2200 81.0000
46.2400 95.0000
46.2600 91.0000
46.2800 83.0000
46.3000 93.0000
46.3200 74.0000
46.3400 76.0000
46.3600 87.0000
46.3800 72.0000
46.4000 88.0000
46.4200 88.0000
46.4400 84.0000
46.4600 90.0000
46.4800 94.0000
46.5000 97.0000
46.5200 92.0000
46.5400 86.0000
46.5600 86.0000
46.5800 74.0000
46.6000 78.0000
46.6200 102.0000
46.6400 80.0000
46.6600 95.0000
46.6800 83.0000
46.7000 98.0000
46.7200 92.0000
46.7400 87.0000
46.7600 81.0000
46.7800 93.0000
46.8000 83.0000
46.8200 68.0000
46.8400 84.0000
46.8600 76.0000
46.8800 101.0000
46.9000 84.0000
46.9200 96.0000
46.9400 80.0000
46.9600 109.0000
46.9800 91.0000
47.0000 86.0000
47.0200 95.0000
47.0400 70.0000
47.0600 82.0000
47.0800 91.0000
47.1000 91.0000
47.1200 98.0000
47.1400 90.0000
47.1600 90.0000
47.1800 97.0000
47.2000 78.0000
47.2200 92.0000
47.2400 87.0000
47.2600 98.0000
47.2800 68.0000
47.3000 88.0000
47.3200 83.0000
47.3400 90.0000
47.3600 95.0000
47.3800 113.0000
47.4000 80.0000
47.4200 82.0000
47.4400 89.0000
47.4600 78.0000
47.4800 92.0000
47.5000 88.0000
47.5200 93.0000
47.5400 73.0000
47.5600 99.0000
47.5800 100.0000
47.6000 95.0000
47.6200 91.0000
47.6400 67.0000
47.6600 99.0000
47.6800 64.0000
47.7000 87.0000
47.7200 89.0000
47.7400 79.0000
47.7600 83.0000
47.7800 81.0000
47.8000 72.0000
47.8200 85.0000
47.8400 83.0000
47.8600 85.0000
47.8800 96.0000
47.9000 84.0000
47.9200 89.0000
47.9400 88.0000
47.9600 91.0000
47.9800 86.0000
48.0000 92.0000
48.0200 72.0000
48.0400 88.0000
48.0600 79.0000
48.0800 85.0000
48.1000 83.0000
48.1200 97.0000
48.1400 82.0000
48.1600 92.0000
48.1800 96.0000
48.2000 85.0000
48.2200 97.0000
48.2400 78.0000
48.2600 81.0000
48.2800 82.0000
48.3000 83.0000
48.3200 90.0000
48.3400 81.0000
48.3600 90.0000
48.3800 68.0000
48.4000 90.0000
48.4200 88.0000
48.4400 92.0000
48.4600 97.0000
48.4800 84.0000
48.5000 99.0000
48.5200 83.0000
48.5400 81.0000
48.5600 93.0000
48.5800 89.0000
48.6000 79.0000
48.6200 76.0000
48.6400 71.0000
48.6600 86.0000
48.6800 85.0000
48.7000 105.0000
48.7200 84.0000
48.7400 78.0000
48.7600 96.0000
48.7800 85.0000
48.8000 81.0000
48.8200 78.0000
48.8400 99.0000
48.8600 69.0000
48.8800 68.0000
48.9000 86.0000
48.9200 91.0000
48.9400 95.0000
48.9600 68.0000
48.9800 76.0000
49.0000 74.0000
49.0200 95.0000
49.0400 66.0000
49.0600 86.0000
49.0800 74.0000
49.1000 80.0000
49.1200 88.0000
49.1400 92.0000
49.1600 71.0000
49.1800 73.0000
49.2000 80.0000
49.2200 70.0000
49.2400 75.0000
49.2600 67.0000
49.2800 83.0000
49.3000 78.0000
49.3200 66.0000
49.3400 73.0000
49.3600 77.0000
49.3800 85.0000
49.4000 70.0000
49.4200 76.0000
49.4400 68.0000
49.4600 77.0000
49.4800 81.0000
49.5000 99.0000
49.5200 83.0000
49.5400 73.0000
49.5600 73.0000
49.5800 80.0000
49.6000 80.0000
49.6200 87.0000
49.6400 88.0000
49.6600 71.0000
49.6800 78.0000
49.7000 84.0000
49.7200 61.0000
49.7400 77.0000
49.7600 79.0000
49.7800 75.0000
49.8000 66.0000
49.8200 74.0000
49.8400 76.0000
49.8600 71.0000
49.8800 63.0000
49.9000 78.0000
49.9200 60.0000
49.9400 79.0000
49.9600 65.0000
49.9800 83.0000
50.0000 90.0000
50.0200 98.0000
50.0400 81.0000
50.0600 95.0000
50.0800 81.0000
50.1000 79.0000
50.1200 85.0000
50.1400 83.0000
50.1600 84.0000
50.1800 66.0000
50.2000 83.0000
50.2200 74.0000
50.2400 77.0000
50.2600 87.0000
50.2800 93.0000
50.3000 80.0000
50.3200 76.0000
50.3400 87.0000
50.3600 67.0000
50.3800 78.0000
50.4000 79.0000
50.4200 76.0000
50.4400 70.0000
50.4600 88.0000
50.4800 61.0000
50.5000 77.0000
50.5200 68.0000
50.5400 67.0000
50.5600 69.0000
50.5800 74.0000
50.6000 79.0000
50.6200 89.0000
50.6400 98.0000
50.6600 69.0000
50.6800 82.0000
50.7000 87.0000
50.7200 73.0000
50.7400 73.0000
50.7600 82.0000
50.7800 82.0000
50.8000 79.0000
50.8200 85.0000
50.8400 97.0000
50.8600 72.0000
50.8800 80.0000
50.9000 85.0000
50.9200 75.0000
50.9400 79.0000
50.9600 84.0000
50.9800 94.0000
51.0000 65.0000
51.0200 91.0000
51.0400 87.0000
51.0600 95.0000
51.0800 80.0000
51.1000 81.0000
51.1200 64.0000
51.1400 89.0000
51.1600 94.0000
51.1800 88.0000
51.2000 89.0000
51.2200 93.0000
51.2400 85.0000
51.2600 77.0000
51.2800 97.0000
51.3000 79.0000
51.3200 79.0000
51.3400 89.0000
51.3600 74.0000
51.3800 94.0000
51.4000 70.0000
51.4200 81.0000
51.4400 86.0000
51.4600 70.0000
51.4800 67.0000
51.5000 82.0000
51.5200 58.0000
51.5400 67.0000
51.5600 80.0000
51.5800 70.0000
51.6000 76.0000
51.6200 85.0000
51.6400 73.0000
51.6600 75.0000
51.6800 85.0000
51.7000 86.0000
51.7200 77.0000
51.7400 81.0000
51.7600 73.0000
51.7800 94.0000
51.8000 93.0000
51.8200 75.0000
51.8400 82.0000
51.8600 73.0000
51.8800 81.0000
51.9000 94.0000
51.9200 90.0000
51.9400 78.0000
51.9600 79.0000
51.9800 87.0000
52.0000 76.0000
52.0200 86.0000
52.0400 63.0000
52.0600 86.0000
52.0800 71.0000
52.1000 88.0000
52.1200 81.0000
52.1400 91.0000
52.1600 86.0000
52.1800 83.0000
52.2000 73.0000
52.2200 70.0000
52.2400 69.0000
52.2600 70.0000
52.2800 99.0000
52.3000 103.0000
52.3200 76.0000
52.3400 72.0000
52.3600 79.0000
52.3800 80.0000
52.4000 80.0000
52.4200 77.0000
52.4400 87.0000
52.4600 91.0000
52.4800 86.0000
52.5000 77.0000
52.5200 66.0000
52.5400 97.0000
52.5600 83.0000
52.5800 66.0000
52.6000 83.0000
52.6200 77.0000
52.6400 77.0000
52.6600 83.0000
52.6800 72.0000
52.7000 62.0000
52.7200 80.0000
52.7400 69.0000
52.7600 67.0000
52.7800 85.0000
52.8000 79.0000
52.8200 78.0000
52.8400 77.0000
52.8600 76.0000
52.8800 81.0000
52.9000 64.0000
52.9200 83.0000
52.9400 82.0000
52.9600 60.0000
52.9800 99.0000
53.0000 79.0000
53.0200 75.0000
53.0400 54.0000
53.0600 89.0000
53.0800 86.0000
53.1000 95.0000
53.1200 72.0000
53.1400 98.0000
53.1600 81.0000
53.1800 78.0000
53.2000 110.0000
53.2200 93.0000
53.2400 116.0000
53.2600 100.0000
53.2800 111.0000
53.3000 109.0000
53.3200 120.0000
53.3400 114.0000
53.3600 115.0000
53.3800 114.0000
53.4000 97.0000
53.4200 94.0000
53.4400 87.0000
53.4600 117.0000
53.4800 108.0000
53.5000 95.0000
53.5200 101.0000
53.5400 97.0000
53.5600 82.0000
53.5800 95.0000
53.6000 82.0000
53.6200 79.0000
53.6400 82.0000
53.6600 86.0000
53.6800 83.0000
53.7000 73.0000
53.7200 79.0000
53.7400 74.0000
53.7600 74.0000
53.7800 78.0000
53.8000 79.0000
53.8200 85.0000
53.8400 76.0000
53.8600 84.0000
53.8800 86.0000
53.9000 85.0000
53.9200 73.0000
53.9400 96.0000
53.9600 70.0000
53.9800 93.0000
54.0000 62.0000
54.0200 83.0000
54.0400 83.0000
54.0600 88.0000
54.0800 83.0000
54.1000 86.0000
54.1200 101.0000
54.1400 75.0000
54.1600 96.0000
54.1800 85.0000
54.2000 80.0000
54.2200 76.0000
54.2400 74.0000
54.2600 85.0000
54.2800 89.0000
54.3000 76.0000
54.3200 84.0000
54.3400 74.0000
54.3600 99.0000
54.3800 78.0000
54.4000 99.0000
54.4200 80.0000
54.4400 87.0000
54.4600 84.0000
54.4800 80.0000
54.5000 84.0000
54.5200 79.0000
54.5400 86.0000
54.5600 92.0000
54.5800 96.0000
54.6000 81.0000
54.6200 78.0000
54.6400 98.0000
54.6600 85.0000
54.6800 74.0000
54.7000 86.0000
54.7200 70.0000
54.7400 82.0000
54.7600 84.0000
54.7800 78.0000
54.8000 84.0000
54.8200 75.0000
54.8400 86.0000
54.8600 70.0000
54.8800 76.0000
54.9000 83.0000
54.9200 78.0000
54.9400 80.0000
54.9600 87.0000
54.9800 89.0000
55.0000 84.0000
55.0200 72.0000
55.0400 83.0000
55.0600 71.0000
55.0800 82.0000
55.1000 86.0000
55.1200 72.0000
55.1400 73.0000
55.1600 82.0000
55.1800 74.0000
55.2000 71.0000
55.2200 90.0000
55.2400 75.0000
55.2600 71.0000
55.2800 85.0000
55.3000 82.0000
55.3200 75.0000
55.3400 77.0000
55.3600 82.0000
55.3800 77.0000
55.4000 76.0000
55.4200 65.0000
55.4400 78.0000
55.4600 95.0000
55.4800 70.0000
55.5000 86.0000
55.5200 73.0000
55.5400 67.0000
55.5600 89.0000
55.5800 77.0000
55.6000 80.0000
55.6200 91.0000
55.6400 72.0000
55.6600 86.0000
55.6800 87.0000
55.7000 66.0000
55.7200 76.0000
55.7400 88.0000
55.7600 73.0000
55.7800 59.0000
55.8000 60.0000
55.8200 74.0000
55.8400 75.0000
55.8600 95.0000
55.8800 91.0000
55.9000 71.0000
55.9200 81.0000
55.9400 77.0000
55.9600 62.0000
55.9800 80.0000
56.0000 86.0000
56.0200 95.0000
56.0400 100.0000
56.0600 80.0000
56.0800 92.0000
56.1000 76.0000
56.1200 67.0000
56.1400 66.0000
56.1600 77.0000
56.1800 70.0000
56.2000 78.0000
56.2200 67.0000
56.2400 88.0000
56.2600 86.0000
56.2800 79.0000
56.3000 64.0000
56.3200 69.0000
56.3400 81.0000
56.3600 100.0000
56.3800 81.0000
56.4000 83.0000
56.4200 81.0000
56.4400 78.0000
56.4600 81.0000
56.4800 68.0000
56.5000 75.0000
56.5200 78.0000
56.5400 85.0000
56.5600 75.0000
56.5800 81.0000
56.6000 80.0000
56.6200 75.0000
56.6400 85.0000
56.6600 68.0000
56.6800 81.0000
56.7000 89.0000
56.7200 70.0000
56.7400 64.0000
56.7600 80.0000
56.7800 95.0000
56.8000 94.0000
56.8200 65.0000
56.8400 83.0000
56.8600 75.0000
56.8800 85.0000
56.9000 82.0000
56.9200 74.0000
56.9400 73.0000
56.9600 82.0000
56.9800 86.0000
57.0000 79.0000
57.0200 73.0000
57.0400 87.0000
57.0600 77.0000
57.0800 67.0000
57.1000 84.0000
57.1200 76.0000
57.1400 81.0000
57.1600 66.0000
57.1800 79.0000
57.2000 87.0000
57.2200 77.0000
57.2400 69.0000
57.2600 69.0000
57.2800 85.0000
57.3000 70.0000
57.3200 50.0000
57.3400 70.0000
57.3600 83.0000
57.3800 74.0000
57.4000 76.0000
57.4200 89.0000
57.4400 62.0000
57.4600 74.0000
57.4800 87.0000
57.5000 81.0000
57.5200 85.0000
57.5400 72.0000
57.5600 71.0000
57.5800 94.0000
57.6000 106.0000
57.6200 70.0000
57.6400 82.0000
57.6600 87.0000
57.6800 73.0000
57.7000 63.0000
57.7200 73.0000
57.7400 70.0000
57.7600 78.0000
57.7800 78.0000
57.8000 78.0000
57.8200 72.0000
57.8400 79.0000
57.8600 93.0000
57.8800 74.0000
57.9000 84.0000
57.9200 70.0000
57.9400 99.0000
57.9600 67.0000
57.9800 71.0000
58.0000 83.0000
58.0200 84.0000
58.0400 61.0000
58.0600 77.0000
58.0800 75.0000
58.1000 82.0000
58.1200 82.0000
58.1400 81.0000
58.1600 81.0000
58.1800 88.0000
58.2000 88.0000
58.2200 87.0000
58.2400 84.0000
58.2600 89.0000
58.2800 69.0000
58.3000 60.0000
58.3200 73.0000
58.3400 74.0000
58.3600 91.0000
58.3800 70.0000
58.4000 88.0000
58.4200 86.0000
58.4400 78.0000
58.4600 110.0000
58.4800 69.0000
58.5000 85.0000
58.5200 93.0000
58.5400 66.0000
58.5600 85.0000
58.5800 83.0000
58.6000 74.0000
58.6200 70.0000
58.6400 92.0000
58.6600 79.0000
58.6800 93.0000
58.7000 74.0000
58.7200 89.0000
58.7400 83.0000
58.7600 75.0000
58.7800 91.0000
58.8000 79.0000
58.8200 61.0000
58.8400 71.0000
58.8600 83.0000
58.8800 78.0000
58.9000 88.0000
58.9200 86.0000
58.9400 64.0000
58.9600 89.0000
58.9800 71.0000
59.0000 68.0000
59.0200 85.0000
59.0400 79.0000
59.0600 84.0000
59.0800 64.0000
59.1000 65.0000
59.1200 71.0000
59.1400 80.0000
59.1600 77.0000
59.1800 64.0000
59.2000 62.0000
59.2200 81.0000
59.2400 71.0000
59.2600 90.0000
59.2800 76.0000
59.3000 71.0000
59.3200 74.0000
59.3400 68.0000
59.3600 62.0000
59.3800 57.0000
59.4000 72.0000
59.4200 75.0000
59.4400 82.0000
59.4600 80.0000
59.4800 79.0000
59.5000 74.0000
59.5200 89.0000
59.5400 82.0000
59.5600 95.0000
59.5800 80.0000
59.6000 79.0000
59.6200 68.0000
59.6400 69.0000
59.6600 84.0000
59.6800 80.0000
59.7000 69.0000
59.7200 83.0000
59.7400 82.0000
59.7600 79.0000
59.7800 91.0000
59.8000 62.0000
59.8200 73.0000
59.8400 87.0000
59.8600 74.0000
59.8800 80.0000
59.9000 68.0000
59.9200 100.0000
59.9400 77.0000
59.9600 84.0000
59.9800 83.0000
60.0000 66.0000
60.0200 82.0000
60.0400 75.0000
60.0600 91.0000
60.0800 76.0000
60.1000 74.0000
60.1200 69.0000
60.1400 81.0000
60.1600 78.0000
60.1800 69.0000
60.2000 67.0000
60.2200 79.0000
60.2400 67.0000
60.2600 84.0000
60.2800 87.0000
60.3000 75.0000
60.3200 78.0000
60.3400 68.0000
60.3600 74.0000
60.3800 78.0000
60.4000 90.0000
60.4200 80.0000
60.4400 95.0000
60.4600 83.0000
60.4800 83.0000
60.5000 79.0000
60.5200 77.0000
60.5400 73.0000
60.5600 83.0000
60.5800 83.0000
60.6000 69.0000
60.6200 76.0000
60.6400 83.0000
60.6600 81.0000
60.6800 72.0000
60.7000 85.0000
60.7200 68.0000
60.7400 65.0000
60.7600 82.0000
60.7800 72.0000
60.8000 72.0000
60.8200 66.0000
60.8400 77.0000
60.8600 80.0000
60.8800 92.0000
60.9000 77.0000
60.9200 91.0000
60.9400 76.0000
60.9600 71.0000
60.9800 88.0000
61.0000 80.0000
61.0200 73.0000
61.0400 72.0000
61.0600 77.0000
61.0800 79.0000
61.1000 90.0000
61.1200 79.0000
61.1400 77.0000
61.1600 61.0000
61.1800 68.0000
61.2000 80.0000
61.2200 72.0000
61.2400 71.0000
61.2600 89.0000
61.2800 67.0000
61.3000 90.0000
61.3200 79.0000
61.3400 73.0000
61.3600 69.0000
61.3800 82.0000
61.4000 72.0000
61.4200 69.0000
61.4400 74.0000
61.4600 69.0000
61.4800 66.0000
61.5000 87.0000
61.5200 67.0000
61.5400 73.0000
61.5600 81.0000
61.5800 74.0000
61.6000 73.0000
61.6200 69.0000
61.6400 85.0000
61.6600 73.0000
61.6800 85.0000
61.7000 78.0000
61.7200 68.0000
61.7400 70.0000
61.7600 67.0000
61.7800 68.0000
61.8000 84.0000
61.8200 82.0000
61.8400 60.0000
61.8600 74.0000
61.8800 101.0000
61.9000 72.0000
61.9200 80.0000
61.9400 75.0000
61.9600 83.0000
61.9800 66.0000
62.0000 80.0000
62.0200 80.0000
62.0400 85.0000
62.0600 95.0000
62.0800 77.0000
62.1000 61.0000
62.1200 92.0000
62.1400 72.0000
62.1600 81.0000
62.1800 90.0000
62.2000 91.0000
62.2200 88.0000
62.2400 82.0000
62.2600 69.0000
62.2800 63.0000
62.3000 73.0000
62.3200 63.0000
62.3400 72.0000
62.3600 73.0000
62.3800 88.0000
62.4000 76.0000
62.4200 101.0000
62.4400 85.0000
62.4600 59.0000
62.4800 70.0000
62.5000 87.0000
62.5200 82.0000
62.5400 70.0000
62.5600 74.0000
62.5800 70.0000
62.6000 68.0000
62.6200 74.0000
62.6400 88.0000
62.6600 72.0000
62.6800 76.0000
62.7000 70.0000
62.7200 68.0000
62.7400 90.0000
62.7600 77.0000
62.7800 80.0000
62.8000 78.0000
62.8200 71.0000
62.8400 82.0000
62.8600 78.0000
62.8800 54.0000
62.9000 61.0000
62.9200 80.0000
62.9400 72.0000
62.9600 80.0000
62.9800 66.0000
63.0000 71.0000
63.0200 79.0000
63.0400 69.0000
63.0600 90.0000
63.0800 71.0000
63.1000 82.0000
63.1200 71.0000
63.1400 71.0000
63.1600 94.0000
63.1800 83.0000
63.2000 71.0000
63.2200 62.0000
63.2400 71.0000
63.2600 96.0000
63.2800 65.0000
63.3000 79.0000
63.3200 64.0000
63.3400 73.0000
63.3600 82.0000
63.3800 71.0000
63.4000 90.0000
63.4200 88.0000
63.4400 87.0000
63.4600 60.0000
63.4800 62.0000
63.5000 77.0000
63.5200 71.0000
63.5400 83.0000
63.5600 66.0000
63.5800 90.0000
63.6000 83.0000
63.6200 57.0000
63.6400 85.0000
63.6600 78.0000
63.6800 75.0000
63.7000 79.0000
63.7200 61.0000
63.7400 78.0000
63.7600 62.0000
63.7800 65.0000
63.8000 67.0000
63.8200 71.0000
63.8400 67.0000
63.8600 54.0000
63.8800 69.0000
63.9000 77.0000
63.9200 77.0000
63.9400 70.0000
63.9600 71.0000
63.9800 79.0000
64.0000 94.0000
64.0200 76.0000
64.0400 89.0000
64.0600 85.0000
64.0800 65.0000
64.1000 84.0000
64.1200 69.0000
64.1400 84.0000
64.1600 64.0000
64.1800 73.0000
64.2000 88.0000
64.2200 75.0000
64.2400 68.0000
64.2600 57.0000
64.2800 72.0000
64.3000 77.0000
64.3200 74.0000
64.3400 72.0000
64.3600 60.0000
64.3800 63.0000
64.4000 86.0000
64.4200 79.0000
64.4400 78.0000
64.4600 69.0000
64.4800 64.0000
64.5000 62.0000
64.5200 86.0000
64.5400 87.0000
64.5600 85.0000
64.5800 70.0000
64.6000 75.0000
64.6200 75.0000
64.6400 79.0000
64.6600 73.0000
64.6800 92.0000
64.7000 75.0000
64.7200 92.0000
64.7400 66.0000
64.7600 65.0000
64.7800 65.0000
64.8000 64.0000
64.8200 82.0000
64.8400 66.0000
64.8600 62.0000
64.8800 65.0000
64.9000 73.0000
64.9200 72.0000
64.9400 77.0000
64.9600 62.0000
64.9800 70.0000
65.0000 82.0000
65.0200 77.0000
65.0400 81.0000
65.0600 76.0000
65.0800 69.0000
65.1000 72.0000
65.1200 78.0000
65.1400 66.0000
65.1600 78.0000
65.1800 71.0000
65.2000 64.0000
65.2200 51.0000
65.2400 86.0000
65.2600 75.0000
65.2800 67.0000
65.3000 72.0000
65.3200 70.0000
65.3400 85.0000
65.3600 87.0000
65.3800 75.0000
65.4000 93.0000
65.4200 79.0000
65.4400 83.0000
65.4600 75.0000
65.4800 75.0000
65.5000 71.0000
65.5200 64.0000
65.5400 75.0000
65.5600 74.0000
65.5800 78.0000
65.6000 83.0000
65.6200 67.0000
65.6400 72.0000
65.6600 83.0000
65.6800 76.0000
65.7000 69.0000
65.7200 62.0000
65.7400 66.0000
65.7600 59.0000
65.7800 75.0000
65.8000 65.0000
65.8200 80.0000
65.8400 64.0000
65.8600 79.0000
65.8800 79.0000
65.9000 70.0000
65.9200 85.0000
65.9400 76.0000
65.9600 67.0000
65.9800 86.0000
66.0000 74.0000
66.0200 75.0000
66.0400 77.0000
66.0600 64.0000
66.0800 80.0000
66.1000 72.0000
66.1200 72.0000
66.1400 58.0000
66.1600 62.0000
66.1800 66.0000
66.2000 69.0000
66.2200 74.0000
66.2400 65.0000
66.2600 81.0000
66.2800 68.0000
66.3000 71.0000
66.3200 66.0000
66.3400 77.0000
66.3600 82.0000
66.3800 73.0000
66.4000 74.0000
66.4200 72.0000
66.4400 77.0000
66.4600 75.0000
66.4800 72.0000
66.5000 81.0000
66.5200 58.0000
66.5400 75.0000
66.5600 63.0000
66.5800 70.0000
66.6000 63.0000
66.6200 73.0000
66.6400 81.0000
66.6600 71.0000
66.6800 69.0000
66.7000 68.0000
66.7200 68.0000
66.7400 83.0000
66.7600 54.0000
66.7800 77.0000
66.8000 59.0000
66.8200 84.0000
66.8400 59.0000
66.8600 81.0000
66.8800 74.0000
66.9000 75.0000
66.9200 84.0000
66.9400 65.0000
66.9600 68.0000
66.9800 66.0000
67.0000 56.0000
67.0200 92.0000
67.0400 70.0000
67.0600 84.0000
67.0800 87.0000
67.1000 66.0000
67.1200 76.0000
67.1400 75.0000
67.1600 61.0000
67.1800 68.0000
67.2000 70.0000
67.2200 69.0000
67.2400 84.0000
67.2600 80.0000
67.2800 70.0000
67.3000 56.0000
67.3200 51.0000
67.3400 67.0000
67.3600 71.0000
67.3800 68.0000
67.4000 72.0000
67.4200 67.0000
67.4400 73.0000
67.4600 66.0000
67.4800 74.0000
67.5000 70.0000
67.5200 68.0000
67.5400 77.0000
67.5600 61.0000
67.5800 56.0000
67.6000 60.0000
67.6200 74.0000
67.6400 80.0000
67.6600 60.0000
67.6800 54.0000
67.7000 98.0000
67.7200 68.0000
67.7400 67.0000
67.7600 71.0000
67.7800 78.0000
67.8000 55.0000
67.8200 68.0000
67.8400 76.0000
67.8600 63.0000
67.8800 76.0000
67.9000 65.0000
67.9200 74.0000
67.9400 66.0000
67.9600 64.0000
67.9800 63.0000
68.0000 62.0000
68.0200 78.0000
68.0400 75.0000
68.0600 61.0000
68.0800 62.0000
68.1000 62.0000
68.1200 63.0000
68.1400 54.0000
68.1600 65.0000
68.1800 74.0000
68.2000 88.0000
68.2200 57.0000
68.2400 65.0000
68.2600 70.0000
68.2800 74.0000
68.3000 67.0000
68.3200 78.0000
68.3400 55.0000
68.3600 65.0000
68.3800 69.0000
68.4000 77.0000
68.4200 71.0000
68.4400 75.0000
68.4600 77.0000
68.4800 74.0000
68.5000 54.0000
68.5200 72.0000
68.5400 81.0000
68.5600 58.0000
68.5800 70.0000
68.6000 64.0000
68.6200 64.0000
68.6400 65.0000
68.6600 91.0000
68.6800 66.0000
68.7000 78.0000
68.7200 59.0000
68.7400 65.0000
68.7600 61.0000
68.7800 51.0000
68.8000 74.0000
68.8200 74.0000
68.8400 69.0000
68.8600 73.0000
68.8800 71.0000
68.9000 59.0000
68.9200 71.0000
68.9400 68.0000
68.9600 66.0000
68.9800 76.0000
69.0000 66.0000
69.0200 74.0000
69.0400 76.0000
69.0600 55.0000
69.0800 62.0000
69.1000 65.0000
69.1200 59.0000
69.1400 89.0000
69.1600 74.0000
69.1800 78.0000
69.2000 47.0000
69.2200 72.0000
69.2400 59.0000
69.2600 67.0000
69.2800 75.0000
69.3000 67.0000
69.3200 71.0000
69.3400 69.0000
69.3600 71.0000
69.3800 59.0000
69.4000 71.0000
69.4200 55.0000
69.4400 65.0000
69.4600 52.0000
69.4800 69.0000
69.5000 67.0000
69.5200 73.0000
69.5400 59.0000
69.5600 74.0000
69.5800 76.0000
69.6000 68.0000
69.6200 62.0000
69.6400 64.0000
69.6600 73.0000
69.6800 71.0000
69.7000 57.0000
69.7200 76.0000
69.7400 65.0000
69.7600 59.0000
69.7800 70.0000
69.8000 67.0000
69.8200 65.0000
69.8400 75.0000
69.8600 53.0000
69.8800 63.0000
69.9000 58.0000
69.9200 62.0000
69.9400 65.0000
69.9600 64.0000
69.9800 60.0000
70.0000 51.0000
70.0200 69.0000
70.0400 59.0000
70.0600 73.0000
70.0800 59.0000
70.1000 65.0000
70.1200 89.0000
70.1400 70.0000
70.1600 74.0000
70.1800 72.0000
70.2000 60.0000
70.2200 69.0000
70.2400 72.0000
70.2600 72.0000
70.2800 70.0000
70.3000 62.0000
70.3200 62.0000
70.3400 63.0000
70.3600 53.0000
70.3800 62.0000
70.4000 59.0000
70.4200 76.0000
70.4400 52.0000
70.4600 67.0000
70.4800 63.0000
70.5000 63.0000
70.5200 67.0000
70.5400 79.0000
70.5600 49.0000
70.5800 71.0000
70.6000 61.0000
70.6200 61.0000
70.6400 70.0000
70.6600 67.0000
70.6800 74.0000
70.7000 58.0000
70.7200 70.0000
70.7400 63.0000
70.7600 69.0000
70.7800 70.0000
70.8000 66.0000
70.8200 70.0000
70.8400 60.0000
70.8600 69.0000
70.8800 54.0000
70.9000 63.0000
70.9200 50.0000
70.9400 62.0000
70.9600 64.0000
70.9800 70.0000
71.0000 48.0000
71.0200 58.0000
71.0400 54.0000
71.0600 58.0000
71.0800 70.0000
71.1000 53.0000
71.1200 57.0000
71.1400 64.0000
71.1600 68.0000
71.1800 58.0000
71.2000 56.0000
71.2200 62.0000
71.2400 58.0000
71.2600 61.0000
71.2800 74.0000
71.3000 46.0000
71.3200 66.0000
71.3400 74.0000
71.3600 58.0000
71.3800 57.0000
71.4000 62.0000
71.4200 71.0000
71.4400 57.0000
71.4600 77.0000
71.4800 53.0000
71.5000 56.0000
71.5200 67.0000
71.5400 50.0000
71.5600 62.0000
71.5800 62.0000
71.6000 75.0000
71.6200 66.0000
71.6400 59.0000
71.6600 67.0000
71.6800 62.0000
71.7000 62.0000
71.7200 54.0000
71.7400 60.0000
71.7600 73.0000
71.7800 61.0000
71.8000 54.0000
71.8200 68.0000
71.8400 60.0000
71.8600 63.0000
71.8800 66.0000
71.9000 68.0000
71.9200 64.0000
71.9400 64.0000
71.9600 58.0000
71.9800 53.0000
72.0000 58.0000
72.0200 55.0000
72.0400 55.0000
72.0600 62.0000
72.0800 57.0000
72.1000 51.0000
72.1200 48.0000
72.1400 61.0000
72.1600 52.0000
72.1800 60.0000
72.2000 53.0000
72.2200 67.0000
72.2400 50.0000
72.2600 46.0000
72.2800 73.0000
72.3000 59.0000
72.3200 66.0000
72.3400 68.0000
72.3600 65.0000
72.3800 62.0000
72.4000 58.0000
72.4200 57.0000
72.4400 69.0000
72.4600 43.0000
72.4800 55.0000
72.5000 72.0000
72.5200 57.0000
72.5400 58.0000
72.5600 69.0000
72.5800 64.0000
72.6000 66.0000
72.6200 53.0000
72.6400 74.0000
72.6600 54.0000
72.6800 58.0000
72.7000 47.0000
72.7200 65.0000
72.7400 59.0000
72.7600 89.0000
72.7800 69.0000
72.8000 54.0000
72.8200 71.0000
72.8400 66.0000
72.8600 62.0000
72.8800 68.0000
72.9000 49.0000
72.9200 57.0000
72.9400 73.0000
72.9600 55.0000
72.9800 50.0000
73.0000 53.0000
73.0200 67.0000
73.0400 43.0000
73.0600 57.0000
73.0800 60.0000
73.1000 62.0000
73.1200 61.0000
73.1400 70.0000
73.1600 55.0000
73.1800 67.0000
73.2000 52.0000
73.2200 83.0000
73.2400 65.0000
73.2600 71.0000
73.2800 68.0000
73.3000 47.0000
73.3200 59.0000
73.3400 67.0000
73.3600 48.0000
73.3800 54.0000
73.4000 54.0000
73.4200 63.0000
73.4400 54.0000
73.4600 63.0000
73.4800 50.0000
73.5000 56.0000
73.5200 73.0000
73.5400 50.0000
73.5600 68.0000
73.5800 63.0000
73.6000 45.0000
73.6200 65.0000
73.6400 68.0000
73.6600 58.0000
73.6800 57.0000
73.7000 53.0000
73.7200 59.0000
73.7400 61.0000
73.7600 59.0000
73.7800 59.0000
73.8000 76.0000
73.8200 60.0000
73.8400 76.0000
73.8600 58.0000
73.8800 44.0000
73.9000 53.0000
73.9200 69.0000
73.9400 53.0000
73.9600 64.0000
73.9800 60.0000
74.0000 51.0000
74.0200 60.0000
74.0400 62.0000
74.0600 61.0000
74.0800 61.0000
74.1000 65.0000
74.1200 66.0000
74.1400 48.0000
74.1600 60.0000
74.1800 50.0000
74.2000 53.0000
74.2200 57.0000
74.2400 70.0000
74.2600 68.0000
74.2800 41.0000
74.3000 50.0000
74.3200 71.0000
74.3400 60.0000
74.3600 58.0000
74.3800 59.0000
74.4000 58.0000
74.4200 63.0000
74.4400 61.0000
74.4600 65.0000
74.4800 75.0000
74.5000 59.0000
74.5200 57.0000
74.5400 50.0000
74.5600 58.0000
74.5800 45.0000
74.6000 62.0000
74.6200 60.0000
74.6400 56.0000
74.6600 66.0000
74.6800 63.0000
74.7000 62.0000
74.7200 62.0000
74.7400 49.0000
74.7600 54.0000
74.7800 44.0000
74.8000 42.0000
74.8200 43.0000
74.8400 56.0000
74.8600 54.0000
74.8800 61.0000
74.9000 58.0000
74.9200 60.0000
74.9400 70.0000
74.9600 55.0000
74.9800 55.0000
75.0000 52.0000
75.0200 51.0000
75.0400 74.0000
75.0600 70.0000
75.0800 57.0000
75.1000 52.0000
75.1200 34.0000
75.1400 56.0000
75.1600 50.0000
75.1800 54.0000
75.2000 46.0000
75.2200 51.0000
75.2400 51.0000
75.2600 49.0000
75.2800 55.0000
75.3000 59.0000
75.3200 53.0000
75.3400 58.0000
75.3600 58.0000
75.3800 56.0000
75.4000 53.0000
75.4200 54.0000
75.4400 65.0000
75.4600 62.0000
75.4800 55.0000
75.5000 51.0000
75.5200 59.0000
75.5400 58.0000
75.5600 58.0000
75.5800 51.0000
75.6000 53.0000
75.6200 59.0000
75.6400 55.0000
75.6600 69.0000
75.6800 53.0000
75.7000 62.0000
75.7200 48.0000
75.7400 44.0000
75.7600 63.0000
75.7800 59.0000
75.8000 47.0000
75.8200 54.0000
75.8400 54.0000
75.8600 45.0000
75.8800 62.0000
75.9000 49.0000
75.9200 63.0000
75.9400 56.0000
75.9600 56.0000
75.9800 51.0000
76.0000 58.0000
76.0200 59.0000
76.0400 51.0000
76.0600 77.0000
76.0800 42.0000
76.1000 52.0000
76.1200 60.0000
76.1400 55.0000
76.1600 54.0000
76.1800 65.0000
76.2000 49.0000
76.2200 55.0000
76.2400 49.0000
76.2600 60.0000
76.2800 59.0000
76.3000 43.0000
76.3200 57.0000
76.3400 41.0000
76.3600 50.0000
76.3800 48.0000
76.4000 50.0000
76.4200 61.0000
76.4400 63.0000
76.4600 61.0000
76.4800 53.0000
76.5000 63.0000
76.5200 52.0000
76.5400 47.0000
76.5600 49.0000
76.5800 41.0000
76.6000 61.0000
76.6200 58.0000
76.6400 57.0000
76.6600 49.0000
76.6800 62.0000
76.7000 59.0000
76.7200 51.0000
76.7400 48.0000
76.7600 52.0000
76.7800 58.0000
76.8000 47.0000
76.8200 37.0000
76.8400 52.0000
76.8600 56.0000
76.8800 46.0000
76.9000 61.0000
76.9200 49.0000
76.9400 52.0000
76.9600 49.0000
76.9800 56.0000
77.0000 48.0000
77.0200 51.0000
77.0400 65.0000
77.0600 44.0000
77.0800 48.0000
77.1000 56.0000
77.1200 64.0000
77.1400 50.0000
77.1600 50.0000
77.1800 52.0000
77.2000 52.0000
77.2200 55.0000
77.2400 60.0000
77.2600 74.0000
77.2800 55.0000
77.3000 63.0000
77.3200 58.0000
77.3400 55.0000
77.3600 41.0000
77.3800 65.0000
77.4000 65.0000
77.4200 49.0000
77.4400 47.0000
77.4600 49.0000
77.4800 50.0000
77.5000 75.0000
77.5200 47.0000
77.5400 60.0000
77.5600 45.0000
77.5800 60.0000
77.6000 51.0000
77.6200 48.0000
77.6400 64.0000
77.6600 50.0000
77.6800 57.0000
77.7000 64.0000
77.7200 56.0000
77.7400 49.0000
77.7600 55.0000
77.7800 41.0000
77.8000 57.0000
77.8200 71.0000
77.8400 50.0000
77.8600 59.0000
77.8800 53.0000
77.9000 47.0000
77.9200 60.0000
77.9400 53.0000
77.9600 33.0000
77.9800 55.0000
78.0000 64.0000
78.0200 53.0000
78.0400 52.0000
78.0600 56.0000
78.0800 45.0000
78.1000 60.0000
78.1200 56.0000
78.1400 61.0000
78.1600 62.0000
78.1800 51.0000
78.2000 62.0000
78.2200 49.0000
78.2400 57.0000
78.2600 57.0000
78.2800 50.0000
78.3000 51.0000
78.3200 55.0000
78.3400 60.0000
78.3600 70.0000
78.3800 42.0000
78.4000 55.0000
78.4200 48.0000
78.4400 53.0000
78.4600 57.0000
78.4800 51.0000
78.5000 59.0000
78.5200 49.0000
78.5400 48.0000
78.5600 49.0000
78.5800 56.0000
78.6000 54.0000
78.6200 55.0000
78.6400 50.0000
78.6600 54.0000
78.6800 50.0000
78.7000 53.0000
78.7200 70.0000
78.7400 56.0000
78.7600 47.0000
78.7800 49.0000
78.8000 61.0000
78.8200 46.0000
78.8400 53.0000
78.8600 52.0000
78.8800 51.0000
78.9000 61.0000
78.9200 66.0000
78.9400 44.0000
78.9600 41.0000
78.9800 47.0000
79.0000 49.0000
79.0200 56.0000
79.0400 47.0000
79.0600 60.0000
79.0800 50.0000
79.1000 53.0000
79.1200 48.0000
79.1400 48.0000
79.1600 54.0000
79.1800 49.0000
79.2000 43.0000
79.2200 40.0000
79.2400 65.0000
79.2600 58.0000
79.2800 47.0000
79.3000 50.0000
79.3200 39.0000
79.3400 54.0000
79.3600 37.0000
79.3800 40.0000
79.4000 60.0000
79.4200 48.0000
79.4400 49.0000
79.4600 52.0000
79.4800 50.0000
79.5000 65.0000
79.5200 43.0000
79.5400 47.0000
79.5600 52.0000
79.5800 58.0000
79.6000 63.0000
79.6200 63.0000
79.6400 44.0000
79.6600 53.0000
79.6800 59.0000
79.7000 47.0000
79.7200 43.0000
79.7400 63.0000
79.7600 59.0000
79.7800 33.0000
79.8000 57.0000
79.8200 40.0000
79.8400 54.0000
79.8600 40.0000
79.8800 55.0000
79.9000 47.0000
79.9200 51.0000
79.9400 47.0000
79.9600 46.0000
79.9800 52.0000
80.0000 43.0000
