5.00000 1203.000
5.04000 1205.000
5.08000 1240.000
5.12000 1173.000
5.16000 1133.000
5.20000 1143.000
5.24000 1136.000
5.28000 1148.000
5.32000 1089.000
5.36000 1140.000
5.40000 1135.000
5.44000 1032.000
5.48000 1093.000
5.52000 1102.000
5.56000 1106.000
5.60000 1072.000
5.64000 1087.000
5.68000 1063.000
5.72000 1087.000
5.76000 1006.000
5.80000 1049.000
5.84000 1000.000
5.88000 1068.000
5.92000 1009.000
5.96000 971.000
6.00000 1063.000
6.04000 1046.000
6.08000 992.000
6.12000 998.000
6.16000 1034.000
6.20000 1005.000
6.24000 985.000
6.28000 974.000
6.32000 972.000
6.36000 971.000
6.40000 947.000
6.44000 897.000
6.48000 957.000
6.52000 954.000
6.56000 932.000
6.60000 962.000
6.64000 918.000
6.68000 931.000
6.72000 886.000
6.76000 889.000
6.80000 946.000
6.84000 873.000
6.88000 882.000
6.92000 950.000
6.96000 873.000
7.00000 902.000
7.04000 824.000
7.08000 855.000
7.12000 871.000
7.16000 878.000
7.20000 843.000
7.24000 854.000
7.28000 898.000
7.32000 861.000
7.36000 811.000
7.40000 821.000
7.44000 863.000
7.48000 774.000
7.52000 838.000
7.56000 810.000
7.60000 816.000
7.64000 788.000
7.68000 807.000
7.72000 766.000
7.76000 787.000
7.80000 751.000
7.84000 804.000
7.88000 826.000
7.92000 762.000
7.96000 777.000
8.00000 806.000
8.04000 800.000
8.08000 824.000
8.12000 791.000
8.16000 715.000
8.20000 778.000
8.24000 775.000
8.28000 729.000
8.32000 739.000
8.36000 773.000
8.40000 738.000
8.44000 716.000
8.48000 742.000
8.52000 681.000
8.56000 683.000
8.60000 753.000
8.64000 698.000
8.68000 748.000
8.72000 747.000
8.76000 651.000
8.80000 717.000
8.84000 719.000
8.88000 719.000
8.92000 708.000
8.96000 707.000
9.00000 670.000
9.04000 686.000
9.08000 697.000
9.12000 664.000
9.16000 691.000
9.20000 688.000
9.24000 732.000
9.28000 672.000
9.32000 692.000
9.36000 723.000
9.40000 708.000
9.44000 676.000
9.48000 686.000
9.52000 668.000
9.56000 687.000
9.60000 687.000
9.64000 689.000
9.68000 678.000
9.72000 635.000
9.76000 652.000
9.80000 670.000
9.84000 662.000
9.88000 671.000
9.92000 611.000
9.96000 645.000
10.00000 661.000
10.04000 641.000
10.08000 671.000
10.12000 660.000
10.16000 678.000
10.20000 634.000
10.24000 662.000
10.28000 639.000
10.32000 613.000
10.36000 612.000
10.40000 637.000
10.44000 664.000
10.48000 608.000
10.52000 631.000
10.56000 625.000
10.60000 638.000
10.64000 605.000
10.68000 660.000
10.72000 617.000
10.76000 600.000
10.80000 605.000
10.84000 642.000
10.88000 627.000
10.92000 606.000
10.96000 642.000
11.00000 585.000
11.04000 619.000
11.08000 582.000
11.12000 592.000
11.16000 610.000
11.20000 596.000
11.24000 597.000
11.28000 586.000
11.32000 578.000
11.36000 652.000
11.40000 629.000
11.44000 585.000
11.48000 588.000
11.52000 556.000
11.56000 553.000
11.60000 558.000
11.64000 618.000
11.68000 619.000
11.72000 551.000
11.76000 564.000
11.80000 589.000
11.84000 620.000
11.88000 567.000
11.92000 599.000
11.96000 554.000
12.00000 620.000
12.04000 579.000
12.08000 572.000
12.12000 567.000
12.16000 574.000
12.20000 560.000
12.24000 586.000
12.28000 604.000
12.32000 559.000
12.36000 588.000
12.40000 617.000
12.44000 570.000
12.48000 617.000
12.52000 573.000
12.56000 576.000
12.60000 572.000
12.64000 594.000
12.68000 608.000
12.72000 563.000
12.76000 604.000
12.80000 596.000
12.84000 531.000
12.88000 600.000
12.92000 577.000
12.96000 592.000
13.00000 558.000
13.04000 588.000
13.08000 611.000
13.12000 608.000
13.16000 584.000
13.20000 615.000
13.24000 663.000
13.28000 722.000
13.32000 707.000
13.36000 727.000
13.40000 660.000
13.44000 644.000
13.48000 647.000
13.52000 605.000
13.56000 589.000
13.60000 574.000
13.64000 606.000
13.68000 603.000
13.72000 592.000
13.76000 622.000
13.80000 583.000
13.84000 603.000
13.88000 594.000
13.92000 604.000
13.96000 604.000
14.00000 623.000
14.04000 621.000
14.08000 658.000
14.12000 620.000
14.16000 587.000
14.20000 594.000
14.24000 614.000
14.28000 573.000
14.32000 588.000
14.36000 631.000
14.40000 625.000
14.44000 588.000
14.48000 596.000
14.52000 585.000
14.56000 613.000
14.60000 619.000
14.64000 611.000
14.68000 638.000
14.72000 616.000
14.76000 606.000
14.80000 592.000
14.84000 647.000
14.88000 633.000
14.92000 620.000
14.96000 614.000
15.00000 607.000
15.04000 652.000
15.08000 617.000
15.12000 596.000
15.16000 607.000
15.20000 665.000
15.24000 622.000
15.28000 604.000
15.32000 590.000
15.36000 667.000
15.40000 644.000
15.44000 596.000
15.48000 627.000
15.52000 597.000
15.56000 646.000
15.60000 597.000
15.64000 651.000
15.68000 639.000
15.72000 636.000
15.76000 624.000
15.80000 648.000
15.84000 650.000
15.88000 639.000
15.92000 661.000
15.96000 637.000
16.00000 615.000
16.04000 630.000
16.08000 637.000
16.12000 637.000
16.16000 641.000
16.20000 675.000
16.24000 649.000
16.28000 672.000
16.32000 724.000
16.36000 703.000
16.40000 682.000
16.44000 664.000
16.48000 660.000
16.52000 678.000
16.56000 661.000
16.60000 684.000
16.64000 714.000
16.68000 682.000
16.72000 716.000
16.76000 720.000
16.80000 692.000
16.84000 691.000
16.88000 714.000
16.92000 685.000
16.96000 744.000
17.00000 737.000
17.04000 691.000
17.08000 708.000
17.12000 753.000
17.16000 738.000
17.20000 722.000
17.24000 705.000
17.28000 734.000
17.32000 736.000
17.36000 747.000
17.40000 725.000
17.44000 707.000
17.48000 746.000
17.52000 773.000
17.56000 730.000
17.60000 781.000
17.64000 828.000
17.68000 730.000
17.72000 695.000
17.76000 798.000
17.80000 769.000
17.84000 824.000
17.88000 713.000
17.92000 770.000
17.96000 778.000
18.00000 799.000
18.04000 808.000
18.08000 789.000
18.12000 791.000
18.16000 808.000
18.20000 806.000
18.24000 799.000
18.28000 777.000
18.32000 771.000
18.36000 807.000
18.40000 782.000
18.44000 854.000
18.48000 810.000
18.52000 855.000
18.56000 829.000
18.60000 820.000
18.64000 858.000
18.68000 847.000
18.72000 811.000
18.76000 841.000
18.80000 831.000
18.84000 824.000
18.88000 892.000
18.92000 851.000
18.96000 889.000
19.00000 885.000
19.04000 873.000
19.08000 855.000
19.12000 837.000
19.16000 875.000
19.20000 848.000
19.24000 885.000
19.28000 938.000
19.32000 929.000
19.36000 888.000
19.40000 936.000
19.44000 971.000
19.48000 873.000
19.52000 1027.000
19.56000 866.000
19.60000 911.000
19.64000 976.000
19.68000 934.000
19.72000 964.000
19.76000 954.000
19.80000 933.000
19.84000 958.000
19.88000 979.000
19.92000 991.000
19.96000 967.000
20.00000 964.000
20.04000 1009.000
20.08000 992.000
20.12000 997.000
20.16000 983.000
20.20000 1005.000
20.24000 1005.000
20.28000 963.000
20.32000 964.000
20.36000 985.000
20.40000 1030.000
20.44000 986.000
20.48000 1007.000
20.52000 1057.000
20.56000 997.000
20.60000 1037.000
20.64000 994.000
20.68000 1022.000
20.72000 1065.000
20.76000 999.000
20.80000 1000.000
20.84000 1066.000
20.88000 1097.000
20.92000 1040.000
20.96000 1018.000
21.00000 1081.000
21.04000 1077.000
21.08000 1058.000
21.12000 1090.000
21.16000 1049.000
21.20000 1095.000
21.24000 1069.000
21.28000 1056.000
21.32000 1129.000
21.36000 1143.000
21.40000 1068.000
21.44000 1110.000
21.48000 1041.000
21.52000 1037.000
21.56000 1124.000
21.60000 1120.000
21.64000 1088.000
21.68000 1144.000
21.72000 1114.000
21.76000 1113.000
21.80000 1141.000
21.84000 1135.000
21.88000 1108.000
21.92000 1188.000
21.96000 1177.000
22.00000 1093.000
22.04000 1143.000
22.08000 1088.000
22.12000 1108.000
22.16000 1063.000
22.20000 1135.000
22.24000 1110.000
22.28000 1217.000
22.32000 1095.000
22.36000 1135.000
22.40000 1150.000
22.44000 1163.000
22.48000 1169.000
22.52000 1163.000
22.56000 1148.000
22.60000 1205.000
22.64000 1206.000
22.68000 1122.000
22.72000 1185.000
22.76000 1154.000
22.80000 1139.000
22.84000 1087.000
22.88000 1228.000
22.92000 1106.000
22.96000 1134.000
23.00000 1093.000
23.04000 1207.000
23.08000 1212.000
23.12000 1195.000
23.16000 1099.000
23.20000 1112.000
23.24000 1135.000
23.28000 1110.000
23.32000 1200.000
23.36000 1172.000
23.40000 1133.000
23.44000 1214.000
23.48000 1190.000
23.52000 1163.000
23.56000 1130.000
23.60000 1201.000
23.64000 1159.000
23.68000 1199.000
23.72000 1153.000
23.76000 1111.000
23.80000 1144.000
23.84000 1195.000
23.88000 1180.000
23.92000 1128.000
23.96000 1204.000
24.00000 1151.000
24.04000 1182.000
24.08000 1217.000
24.12000 1199.000
24.16000 1111.000
24.20000 1136.000
24.24000 1182.000
24.28000 1205.000
24.32000 1211.000
24.36000 1173.000
24.40000 1148.000
24.44000 1259.000
24.48000 1178.000
24.52000 1113.000
24.56000 1217.000
24.60000 1179.000
24.64000 1182.000
24.68000 1136.000
24.72000 1169.000
24.76000 1171.000
24.80000 1138.000
24.84000 1175.000
24.88000 1172.000
24.92000 1222.000
24.96000 1193.000
25.00000 1180.000
25.04000 1142.000
25.08000 1157.000
25.12000 1199.000
25.16000 1125.000
25.20000 1198.000
25.24000 1183.000
25.28000 1165.000
25.32000 1201.000
25.36000 1232.000
25.40000 1193.000
25.44000 1248.000
25.48000 1366.000
25.52000 1434.000
25.56000 1461.000
25.60000 1748.000
25.64000 1893.000
25.68000 2266.000
25.72000 3036.000
25.76000 4438.000
25.80000 6698.000
25.84000 8333.000
25.88000 7765.000
25.92000 5742.000
25.96000 3811.000
26.00000 2468.000
26.04000 1890.000
26.08000 1526.000
26.12000 1339.000
26.16000 1262.000
26.20000 1244.000
26.24000 1186.000
26.28000 1080.000
26.32000 1154.000
26.36000 1114.000
26.40000 1121.000
26.44000 1065.000
26.48000 1107.000
26.52000 1101.000
26.56000 1038.000
26.60000 1072.000
26.64000 1117.000
26.68000 1084.000
26.72000 1065.000
26.76000 1119.000
26.80000 1018.000
26.84000 1114.000
26.88000 1154.000
26.92000 1067.000
26.96000 1116.000
27.00000 1034.000
27.04000 1020.000
27.08000 1029.000
27.12000 1078.000
27.16000 1065.000
27.20000 1073.000
27.24000 1073.000
27.28000 1013.000
27.32000 1051.000
27.36000 1023.000
27.40000 1044.000
27.44000 1016.000
27.48000 1027.000
27.52000 1029.000
27.56000 1028.000
27.60000 1056.000
27.64000 1066.000
27.68000 1046.000
27.72000 1038.000
27.76000 973.000
27.80000 1045.000
27.84000 1018.000
27.88000 1036.000
27.92000 999.000
27.96000 1072.000
28.00000 1063.000
28.04000 1035.000
28.08000 1111.000
28.12000 1065.000
28.16000 1017.000
28.20000 1101.000
28.24000 1031.000
28.28000 1017.000
28.32000 983.000
28.36000 988.000
28.40000 995.000
28.44000 1085.000
28.48000 1067.000
28.52000 986.000
28.56000 990.000
28.60000 981.000
28.64000 999.000
28.68000 971.000
28.72000 1028.000
28.76000 964.000
28.80000 1001.000
28.84000 977.000
28.88000 969.000
28.92000 956.000
28.96000 958.000
29.00000 982.000
29.04000 1020.000
29.08000 1004.000
29.12000 970.000
29.16000 996.000
29.20000 936.000
29.24000 976.000
29.28000 954.000
29.32000 953.000
29.36000 967.000
29.40000 963.000
29.44000 974.000
29.48000 942.000
29.52000 931.000
29.56000 958.000
29.60000 952.000
29.64000 939.000
29.68000 927.000
29.72000 926.000
29.76000 962.000
29.80000 949.000
29.84000 947.000
29.88000 962.000
29.92000 918.000
29.96000 930.000
30.00000 943.000
30.04000 980.000
30.08000 951.000
30.12000 937.000
30.16000 927.000
30.20000 907.000
30.24000 949.000
30.28000 926.000
30.32000 947.000
30.36000 898.000
30.40000 877.000
30.44000 895.000
30.48000 986.000
30.52000 914.000
30.56000 887.000
30.60000 877.000
30.64000 930.000
30.68000 869.000
30.72000 886.000
30.76000 876.000
30.80000 928.000
30.84000 876.000
30.88000 916.000
30.92000 876.000
30.96000 876.000
31.00000 855.000
31.04000 842.000
31.08000 916.000
31.12000 840.000
31.16000 829.000
31.20000 800.000
31.24000 854.000
31.28000 867.000
31.32000 849.000
31.36000 882.000
31.40000 859.000
31.44000 838.000
31.48000 878.000
31.52000 835.000
31.56000 849.000
31.60000 829.000
31.64000 813.000
31.68000 865.000
31.72000 892.000
31.76000 831.000
31.80000 836.000
31.84000 832.000
31.88000 855.000
31.92000 813.000
31.96000 859.000
32.00000 849.000
32.04000 796.000
32.08000 845.000
32.12000 801.000
32.16000 860.000
32.20000 799.000
32.24000 840.000
32.28000 809.000
32.32000 778.000
32.36000 803.000
32.40000 804.000
32.44000 787.000
32.48000 825.000
32.52000 806.000
32.56000 792.000
32.60000 760.000
32.64000 782.000
32.68000 736.000
32.72000 834.000
32.76000 792.000
32.80000 823.000
32.84000 771.000
32.88000 742.000
32.92000 763.000
32.96000 742.000
33.00000 809.000
33.04000 793.000
33.08000 759.000
33.12000 753.000
33.16000 696.000
33.20000 778.000
33.24000 742.000
33.28000 768.000
33.32000 770.000
33.36000 793.000
33.40000 746.000
33.44000 747.000
33.48000 759.000
33.52000 735.000
33.56000 738.000
33.60000 798.000
33.64000 801.000
33.68000 840.000
33.72000 827.000
33.76000 773.000
33.80000 770.000
33.84000 761.000
33.88000 723.000
33.92000 734.000
33.96000 751.000
34.00000 654.000
34.04000 691.000
34.08000 642.000
34.12000 707.000
34.16000 691.000
34.20000 692.000
34.24000 714.000
34.28000 665.000
34.32000 704.000
34.36000 650.000
34.40000 693.000
34.44000 678.000
34.48000 655.000
34.52000 672.000
34.56000 628.000
34.60000 646.000
34.64000 612.000
34.68000 654.000
34.72000 670.000
34.76000 622.000
34.80000 640.000
34.84000 675.000
34.88000 651.000
34.92000 624.000
34.96000 632.000
35.00000 596.000
35.04000 624.000
35.08000 662.000
35.12000 679.000
35.16000 654.000
35.20000 625.000
35.24000 586.000
35.28000 622.000
35.32000 593.000
35.36000 631.000
35.40000 660.000
35.44000 612.000
35.48000 575.000
35.52000 662.000
35.56000 610.000
35.60000 588.000
35.64000 593.000
35.68000 591.000
35.72000 604.000
35.76000 552.000
35.80000 582.000
35.84000 570.000
35.88000 619.000
35.92000 563.000
35.96000 579.000
36.00000 593.000
36.04000 585.000
36.08000 584.000
36.12000 606.000
36.16000 550.000
36.20000 573.000
36.24000 551.000
36.28000 524.000
36.32000 572.000
36.36000 567.000
36.40000 550.000
36.44000 566.000
36.48000 570.000
36.52000 545.000
36.56000 572.000
36.60000 601.000
36.64000 576.000
36.68000 630.000
36.72000 706.000
36.76000 833.000
36.80000 845.000
36.84000 969.000
36.88000 947.000
36.92000 901.000
36.96000 753.000
37.00000 665.000
37.04000 627.000
37.08000 570.000
37.12000 569.000
37.16000 566.000
37.20000 511.000
37.24000 492.000
37.28000 557.000
37.32000 526.000
37.36000 501.000
37.40000 565.000
37.44000 475.000
37.48000 522.000
37.52000 520.000
37.56000 475.000
37.60000 486.000
37.64000 494.000
37.68000 486.000
37.72000 465.000
37.76000 464.000
37.80000 459.000
37.84000 508.000
37.88000 468.000
37.92000 538.000
37.96000 482.000
38.00000 486.000
38.04000 469.000
38.08000 451.000
38.12000 534.000
38.16000 472.000
38.20000 519.000
38.24000 493.000
38.28000 514.000
38.32000 521.000
38.36000 453.000
38.40000 481.000
38.44000 502.000
38.48000 499.000
38.52000 457.000
38.56000 466.000
38.60000 450.000
38.64000 451.000
38.68000 441.000
38.72000 436.000
38.76000 438.000
38.80000 460.000
38.84000 432.000
38.88000 491.000
38.92000 448.000
38.96000 465.000
39.00000 447.000
39.04000 456.000
39.08000 463.000
39.12000 442.000
39.16000 464.000
39.20000 441.000
39.24000 432.000
39.28000 475.000
39.32000 488.000
39.36000 472.000
39.40000 446.000
39.44000 500.000
39.48000 459.000
39.52000 436.000
39.56000 446.000
39.60000 470.000
39.64000 414.000
39.68000 461.000
39.72000 473.000
39.76000 454.000
39.80000 465.000
39.84000 489.000
39.88000 441.000
39.92000 433.000
39.96000 487.000
40.00000 448.000
40.04000 448.000
40.08000 426.000
40.12000 468.000
40.16000 460.000
40.20000 470.000
40.24000 510.000
40.28000 459.000
40.32000 463.000
40.36000 453.000
40.40000 489.000
40.44000 441.000
40.48000 432.000
40.52000 467.000
40.56000 489.000
40.60000 416.000
40.64000 450.000
40.68000 456.000
40.72000 492.000
40.76000 487.000
40.80000 449.000
40.84000 467.000
40.88000 502.000
40.92000 464.000
40.96000 415.000
41.00000 400.000
41.04000 474.000
41.08000 455.000
41.12000 464.000
41.16000 440.000
41.20000 426.000
41.24000 457.000
41.28000 453.000
41.32000 446.000
41.36000 441.000
41.40000 409.000
41.44000 417.000
41.48000 411.000
41.52000 456.000
41.56000 468.000
41.60000 428.000
41.64000 441.000
41.68000 435.000
41.72000 415.000
41.76000 420.000
41.80000 437.000
41.84000 452.000
41.88000 490.000
41.92000 415.000
41.96000 448.000
42.00000 460.000
42.04000 452.000
42.08000 457.000
42.12000 434.000
42.16000 441.000
42.20000 455.000
42.24000 472.000
42.28000 438.000
42.32000 469.000
42.36000 462.000
42.40000 490.000
42.44000 453.000
42.48000 447.000
42.52000 443.000
42.56000 442.000
42.60000 476.000
42.64000 495.000
42.68000 493.000
42.72000 490.000
42.76000 456.000
42.80000 481.000
42.84000 444.000
42.88000 437.000
42.92000 495.000
42.96000 433.000
43.00000 435.000
43.04000 449.000
43.08000 423.000
43.12000 468.000
43.16000 449.000
43.20000 440.000
43.24000 437.000
43.28000 425.000
43.32000 440.000
43.36000 440.000
43.40000 459.000
43.44000 437.000
43.48000 444.000
43.52000 448.000
43.56000 419.000
43.60000 432.000
43.64000 433.000
43.68000 459.000
43.72000 419.000
43.76000 432.000
43.80000 456.000
43.84000 418.000
43.88000 442.000
43.92000 432.000
43.96000 409.000
44.00000 418.000
44.04000 454.000
44.08000 420.000
44.12000 429.000
44.16000 416.000
44.20000 474.000
44.24000 446.000
44.28000 411.000
44.32000 416.000
44.36000 422.000
44.40000 412.000
44.44000 441.000
44.48000 425.000
44.52000 451.000
44.56000 416.000
44.60000 381.000
44.64000 420.000
44.68000 453.000
44.72000 436.000
44.76000 426.000
44.80000 437.000
44.84000 437.000
44.88000 436.000
44.92000 422.000
44.96000 486.000
45.00000 416.000
45.04000 447.000
45.08000 418.000
45.12000 413.000
45.16000 411.000
45.20000 468.000
45.24000 395.000
45.28000 444.000
45.32000 443.000
45.36000 448.000
45.40000 450.000
45.44000 477.000
45.48000 466.000
45.52000 487.000
45.56000 535.000
45.60000 489.000
45.64000 475.000
45.68000 475.000
45.72000 480.000
45.76000 473.000
45.80000 450.000
45.84000 448.000
45.88000 422.000
45.92000 405.000
45.96000 415.000
46.00000 416.000
46.04000 408.000
46.08000 399.000
46.12000 393.000
46.16000 387.000
46.20000 377.000
46.24000 418.000
46.28000 417.000
46.32000 391.000
46.36000 391.000
46.40000 410.000
46.44000 409.000
46.48000 428.000
46.52000 401.000
46.56000 391.000
46.60000 403.000
46.64000 429.000
46.68000 413.000
46.72000 397.000
46.76000 388.000
46.80000 413.000
46.84000 416.000
46.88000 394.000
46.92000 389.000
46.96000 386.000
47.00000 409.000
47.04000 386.000
47.08000 423.000
47.12000 395.000
47.16000 400.000
47.20000 409.000
47.24000 426.000
47.28000 412.000
47.32000 372.000
47.36000 416.000
47.40000 388.000
47.44000 400.000
47.48000 380.000
47.52000 364.000
47.56000 374.000
47.60000 387.000
47.64000 445.000
47.68000 398.000
47.72000 402.000
47.76000 402.000
47.80000 377.000
47.84000 374.000
47.88000 384.000
47.92000 355.000
47.96000 407.000
48.00000 366.000
48.04000 412.000
48.08000 406.000
48.12000 398.000
48.16000 416.000
48.20000 372.000
48.24000 395.000
48.28000 382.000
48.32000 338.000
48.36000 412.000
48.40000 388.000
48.44000 372.000
48.48000 408.000
48.52000 400.000
48.56000 384.000
48.60000 396.000
48.64000 398.000
48.68000 414.000
48.72000 396.000
48.76000 381.000
48.80000 406.000
48.84000 373.000
48.88000 415.000
48.92000 367.000
48.96000 384.000
49.00000 363.000
49.04000 383.000
49.08000 378.000
49.12000 380.000
49.16000 402.000
49.20000 373.000
49.24000 339.000
49.28000 406.000
49.32000 398.000
49.36000 382.000
49.40000 384.000
49.44000 380.000
49.48000 350.000
49.52000 354.000
49.56000 371.000
49.60000 379.000
49.64000 366.000
49.68000 391.000
49.72000 361.000
49.76000 386.000
49.80000 340.000
49.84000 389.000
49.88000 362.000
49.92000 386.000
49.96000 371.000
50.00000 339.000
50.04000 405.000
50.08000 391.000
50.12000 397.000
50.16000 343.000
50.20000 361.000
50.24000 380.000
50.28000 393.000
50.32000 387.000
50.36000 378.000
50.40000 372.000
50.44000 381.000
50.48000 353.000
50.52000 377.000
50.56000 378.000
50.60000 346.000
50.64000 365.000
50.68000 386.000
50.72000 381.000
50.76000 382.000
50.80000 395.000
50.84000 378.000
50.88000 399.000
50.92000 351.000
50.96000 364.000
51.00000 375.000
51.04000 394.000
51.08000 364.000
51.12000 369.000
51.16000 386.000
51.20000 352.000
51.24000 380.000
51.28000 316.000
51.32000 363.000
51.36000 372.000
51.40000 382.000
51.44000 382.000
51.48000 361.000
51.52000 356.000
51.56000 372.000
51.60000 371.000
51.64000 378.000
51.68000 381.000
51.72000 380.000
51.76000 343.000
51.80000 384.000
51.84000 355.000
51.88000 355.000
51.92000 368.000
51.96000 343.000
52.00000 357.000
52.04000 396.000
52.08000 401.000
52.12000 356.000
52.16000 389.000
52.20000 361.000
52.24000 337.000
52.28000 341.000
52.32000 355.000
52.36000 363.000
52.40000 355.000
52.44000 377.000
52.48000 362.000
52.52000 389.000
52.56000 341.000
52.60000 372.000
52.64000 343.000
52.68000 355.000
52.72000 383.000
52.76000 373.000
52.80000 395.000
52.84000 385.000
52.88000 385.000
52.92000 394.000
52.96000 444.000
53.00000 482.000
53.04000 569.000
53.08000 745.000
53.12000 783.000
53.16000 757.000
53.20000 649.000
53.24000 626.000
53.28000 605.000
53.32000 501.000
53.36000 451.000
53.40000 425.000
53.44000 359.000
53.48000 396.000
53.52000 363.000
53.56000 375.000
53.60000 362.000
53.64000 399.000
53.68000 386.000
53.72000 352.000
53.76000 405.000
53.80000 353.000
53.84000 376.000
53.88000 393.000
53.92000 349.000
53.96000 363.000
54.00000 398.000
54.04000 395.000
54.08000 360.000
54.12000 360.000
54.16000 363.000
54.20000 398.000
54.24000 376.000
54.28000 355.000
54.32000 358.000
54.36000 351.000
54.40000 363.000
54.44000 371.000
54.48000 333.000
54.52000 352.000
54.56000 357.000
54.60000 368.000
54.64000 346.000
54.68000 356.000
54.72000 367.000
54.76000 338.000
54.80000 343.000
54.84000 324.000
54.88000 361.000
54.92000 325.000
54.96000 352.000
55.00000 347.000
55.04000 364.000
55.08000 373.000
55.12000 348.000
55.16000 351.000
55.20000 347.000
55.24000 371.000
55.28000 374.000
55.32000 387.000
55.36000 359.000
55.40000 339.000
55.44000 331.000
55.48000 360.000
55.52000 333.000
55.56000 348.000
55.60000 340.000
55.64000 350.000
55.68000 357.000
55.72000 392.000
55.76000 371.000
55.80000 364.000
55.84000 398.000
55.88000 359.000
55.92000 372.000
55.96000 349.000
56.00000 373.000
56.04000 349.000
56.08000 361.000
56.12000 357.000
56.16000 326.000
56.20000 314.000
56.24000 361.000
56.28000 344.000
56.32000 369.000
56.36000 346.000
56.40000 340.000
56.44000 353.000
56.48000 348.000
56.52000 362.000
56.56000 364.000
56.60000 370.000
56.64000 351.000
56.68000 354.000
56.72000 379.000
56.76000 354.000
56.80000 375.000
56.84000 364.000
56.88000 381.000
56.92000 388.000
56.96000 357.000
57.00000 359.000
57.04000 364.000
57.08000 394.000
57.12000 356.000
57.16000 349.000
57.20000 373.000
57.24000 387.000
57.28000 352.000
57.32000 366.000
57.36000 337.000
57.40000 338.000
57.44000 380.000
57.48000 341.000
57.52000 363.000
57.56000 353.000
57.60000 392.000
57.64000 359.000
57.68000 372.000
57.72000 371.000
57.76000 377.000
57.80000 371.000
57.84000 352.000
57.88000 380.000
57.92000 331.000
57.96000 371.000
58.00000 352.000
58.04000 389.000
58.08000 370.000
58.12000 362.000
58.16000 342.000
58.20000 358.000
58.24000 352.000
58.28000 348.000
58.32000 366.000
58.36000 341.000
58.40000 369.000
58.44000 368.000
58.48000 342.000
58.52000 391.000
58.56000 371.000
58.60000 356.000
58.64000 357.000
58.68000 400.000
58.72000 398.000
58.76000 357.000
58.80000 343.000
58.84000 344.000
58.88000 374.000
58.92000 393.000
58.96000 401.000
59.00000 370.000
59.04000 352.000
59.08000 397.000
59.12000 358.000
59.16000 328.000
59.20000 356.000
59.24000 374.000
59.28000 361.000
59.32000 379.000
59.36000 372.000
59.40000 352.000
59.44000 374.000
59.48000 346.000
59.52000 361.000
59.56000 389.000
59.60000 344.000
59.64000 362.000
59.68000 389.000
59.72000 379.000
59.76000 386.000
59.80000 384.000
59.84000 366.000
59.88000 376.000
59.92000 456.000
