5.00000 1818.000
5.04000 1889.000
5.08000 1788.000
5.12000 1816.000
5.16000 1787.000
5.20000 1806.000
5.24000 1735.000
5.28000 1718.000
5.32000 1678.000
5.36000 1734.000
5.40000 1639.000
5.44000 1671.000
5.48000 1683.000
5.52000 1607.000
5.56000 1575.000
5.60000 1636.000
5.64000 1687.000
5.68000 1574.000
5.72000 1538.000
5.76000 1513.000
5.80000 1562.000
5.84000 1484.000
5.88000 1547.000
5.92000 1546.000
5.96000 1548.000
6.00000 1493.000
6.04000 1477.000
6.08000 1392.000
6.12000 1443.000
6.16000 1453.000
6.20000 1450.000
6.24000 1414.000
6.28000 1439.000
6.32000 1266.000
6.36000 1436.000
6.40000 1370.000
6.44000 1336.000
6.48000 1438.000
6.52000 1379.000
6.56000 1384.000
6.60000 1374.000
6.64000 1348.000
6.68000 1407.000
6.72000 1327.000
6.76000 1353.000
6.80000 1339.000
6.84000 1352.000
6.88000 1316.000
6.92000 1250.000
6.96000 1289.000
7.00000 1285.000
7.04000 1268.000
7.08000 1305.000
7.12000 1250.000
7.16000 1242.000
7.20000 1263.000
7.24000 1253.000
7.28000 1286.000
7.32000 1226.000
7.36000 1228.000
7.40000 1205.000
7.44000 1229.000
7.48000 1243.000
7.52000 1265.000
7.56000 1207.000
7.60000 1240.000
7.64000 1260.000
7.68000 1210.000
7.72000 1186.000
7.76000 1216.000
7.80000 1209.000
7.84000 1206.000
7.88000 1254.000
7.92000 1279.000
7.96000 1307.000
8.00000 1288.000
8.04000 1449.000
8.08000 1489.000
8.12000 1478.000
8.16000 1617.000
8.20000 1679.000
8.24000 1766.000
8.28000 1817.000
8.32000 1852.000
8.36000 1857.000
8.40000 1688.000
8.44000 1649.000
8.48000 1537.000
8.52000 1451.000
8.56000 1355.000
8.60000 1209.000
8.64000 1175.000
8.68000 1170.000
8.72000 1053.000
8.76000 1120.000
8.80000 1085.000
8.84000 1099.000
8.88000 1072.000
8.92000 1034.000
8.96000 1059.000
9.00000 1106.000
9.04000 1039.000
9.08000 1081.000
9.12000 1037.000
9.16000 983.000
9.20000 1056.000
9.24000 1024.000
9.28000 1032.000
9.32000 940.000
9.36000 983.000
9.40000 1022.000
9.44000 970.000
9.48000 1020.000
9.52000 1012.000
9.56000 1008.000
9.60000 1011.000
9.64000 1045.000
9.68000 1053.000
9.72000 964.000
9.76000 1008.000
9.80000 910.000
9.84000 931.000
9.88000 935.000
9.92000 973.000
9.96000 974.000
10.00000 954.000
10.04000 938.000
10.08000 910.000
10.12000 915.000
10.16000 908.000
10.20000 917.000
10.24000 964.000
10.28000 896.000
10.32000 894.000
10.36000 914.000
10.40000 969.000
10.44000 892.000
10.48000 931.000
10.52000 901.000
10.56000 840.000
10.60000 907.000
10.64000 912.000
10.68000 860.000
10.72000 912.000
10.76000 953.000
10.80000 902.000
10.84000 918.000
10.88000 886.000
10.92000 888.000
10.96000 905.000
11.00000 909.000
11.04000 932.000
11.08000 860.000
11.12000 919.000
11.16000 836.000
11.20000 869.000
11.24000 800.000
11.28000 955.000
11.32000 853.000
11.36000 852.000
11.40000 895.000
11.44000 876.000
11.48000 887.000
11.52000 881.000
11.56000 907.000
11.60000 917.000
11.64000 931.000
11.68000 939.000
11.72000 881.000
11.76000 970.000
11.80000 964.000
11.84000 986.000
11.88000 1115.000
11.92000 1287.000
11.96000 1413.000
12.00000 1687.000
12.04000 1527.000
12.08000 1365.000
12.12000 1120.000
12.16000 1044.000
12.20000 1059.000
12.24000 1003.000
12.28000 995.000
12.32000 1022.000
12.36000 1031.000
12.40000 997.000
12.44000 997.000
12.48000 972.000
12.52000 1072.000
12.56000 1102.000
12.60000 1072.000
12.64000 1142.000
12.68000 1137.000
12.72000 1175.000
12.76000 1211.000
12.80000 1211.000
12.84000 1136.000
12.88000 1174.000
12.92000 1050.000
12.96000 1000.000
13.00000 997.000
13.04000 993.000
13.08000 964.000
13.12000 899.000
13.16000 896.000
13.20000 852.000
13.24000 898.000
13.28000 861.000
13.32000 803.000
13.36000 842.000
13.40000 828.000
13.44000 803.000
13.48000 807.000
13.52000 836.000
13.56000 859.000
13.60000 808.000
13.64000 824.000
13.68000 837.000
13.72000 812.000
13.76000 831.000
13.80000 785.000
13.84000 819.000
13.88000 817.000
13.92000 851.000
13.96000 861.000
14.00000 787.000
14.04000 846.000
14.08000 861.000
14.12000 793.000
14.16000 825.000
14.20000 822.000
14.24000 865.000
14.28000 846.000
14.32000 816.000
14.36000 841.000
14.40000 852.000
14.44000 871.000
14.48000 819.000
14.52000 880.000
14.56000 864.000
14.60000 832.000
14.64000 899.000
14.68000 885.000
14.72000 882.000
14.76000 871.000
14.80000 908.000
14.84000 888.000
14.88000 874.000
14.92000 828.000
14.96000 814.000
15.00000 814.000
15.04000 881.000
15.08000 878.000
15.12000 842.000
15.16000 865.000
15.20000 853.000
15.24000 873.000
15.28000 853.000
15.32000 887.000
15.36000 874.000
15.40000 879.000
15.44000 872.000
15.48000 865.000
15.52000 869.000
15.56000 886.000
15.60000 854.000
15.64000 885.000
15.68000 912.000
15.72000 887.000
15.76000 856.000
15.80000 917.000
15.84000 940.000
15.88000 866.000
15.92000 951.000
15.96000 904.000
16.00000 986.000
16.04000 987.000
16.08000 918.000
16.12000 936.000
16.16000 928.000
16.20000 989.000
16.24000 1016.000
16.28000 1000.000
16.32000 1021.000
16.36000 1048.000
16.40000 1075.000
16.44000 1115.000
16.48000 1154.000
16.52000 1210.000
16.56000 1342.000
16.60000 1387.000
16.64000 1440.000
16.68000 1452.000
16.72000 1477.000
16.76000 1465.000
16.80000 1476.000
16.84000 1321.000
16.88000 1303.000
16.92000 1119.000
16.96000 1122.000
17.00000 1043.000
17.04000 1080.000
17.08000 1107.000
17.12000 1051.000
17.16000 1002.000
17.20000 1015.000
17.24000 996.000
17.28000 1085.000
17.32000 1016.000
17.36000 1006.000
17.40000 1032.000
17.44000 1045.000
17.48000 1027.000
17.52000 1051.000
17.56000 1077.000
17.60000 1070.000
17.64000 991.000
17.68000 1019.000
17.72000 1086.000
17.76000 1073.000
17.80000 1014.000
17.84000 1022.000
17.88000 1113.000
17.92000 1087.000
17.96000 1012.000
18.00000 1074.000
18.04000 1073.000
18.08000 1046.000
18.12000 1040.000
18.16000 1058.000
18.20000 1127.000
18.24000 1050.000
18.28000 1080.000
18.32000 1114.000
18.36000 1039.000
18.40000 1107.000
18.44000 1083.000
18.48000 1098.000
18.52000 1182.000
18.56000 1118.000
18.60000 1132.000
18.64000 1088.000
18.68000 1121.000
18.72000 1143.000
18.76000 1105.000
18.80000 1138.000
18.84000 1072.000
18.88000 1142.000
18.92000 1194.000
18.96000 1157.000
19.00000 1137.000
19.04000 1203.000
19.08000 1218.000
19.12000 1179.000
19.16000 1202.000
19.20000 1219.000
19.24000 1209.000
19.28000 1165.000
19.32000 1238.000
19.36000 1194.000
19.40000 1233.000
19.44000 1278.000
19.48000 1197.000
19.52000 1283.000
19.56000 1236.000
19.60000 1261.000
19.64000 1280.000
19.68000 1211.000
19.72000 1279.000
19.76000 1272.000
19.80000 1222.000
19.84000 1229.000
19.88000 1203.000
19.92000 1266.000
19.96000 1262.000
20.00000 1336.000
20.04000 1288.000
20.08000 1307.000
20.12000 1317.000
20.16000 1322.000
20.20000 1305.000
20.24000 1369.000
20.28000 1335.000
20.32000 1371.000
20.36000 1358.000
20.40000 1389.000
20.44000 1365.000
20.48000 1347.000
20.52000 1406.000
20.56000 1360.000
20.60000 1370.000
20.64000 1417.000
20.68000 1435.000
20.72000 1467.000
20.76000 1389.000
20.80000 1520.000
20.84000 1514.000
20.88000 1492.000
20.92000 1577.000
20.96000 1509.000
21.00000 1544.000
21.04000 1507.000
21.08000 1520.000
21.12000 1500.000
21.16000 1508.000
21.20000 1503.000
21.24000 1539.000
21.28000 1494.000
21.32000 1473.000
21.36000 1499.000
21.40000 1480.000
21.44000 1462.000
21.48000 1506.000
21.52000 1492.000
21.56000 1472.000
21.60000 1461.000
21.64000 1467.000
21.68000 1445.000
21.72000 1523.000
21.76000 1411.000
21.80000 1524.000
21.84000 1531.000
21.88000 1533.000
21.92000 1504.000
21.96000 1501.000
22.00000 1540.000
22.04000 1559.000
22.08000 1510.000
22.12000 1491.000
22.16000 1503.000
22.20000 1589.000
22.24000 1480.000
22.28000 1564.000
22.32000 1554.000
22.36000 1547.000
22.40000 1490.000
22.44000 1538.000
22.48000 1565.000
22.52000 1585.000
22.56000 1619.000
22.60000 1575.000
22.64000 1574.000
22.68000 1577.000
22.72000 1636.000
22.76000 1615.000
22.80000 1571.000
22.84000 1606.000
22.88000 1589.000
22.92000 1581.000
22.96000 1623.000
23.00000 1622.000
23.04000 1518.000
23.08000 1547.000
23.12000 1533.000
23.16000 1579.000
23.20000 1607.000
23.24000 1548.000
23.28000 1571.000
23.32000 1626.000
23.36000 1578.000
23.40000 1594.000
23.44000 1641.000
23.48000 1593.000
23.52000 1523.000
23.56000 1576.000
23.60000 1609.000
23.64000 1659.000
23.68000 1593.000
23.72000 1709.000
23.76000 1611.000
23.80000 1638.000
23.84000 1708.000
23.88000 1682.000
23.92000 1759.000
23.96000 1778.000
24.00000 1698.000
24.04000 1818.000
24.08000 1891.000
24.12000 1919.000
24.16000 1964.000
24.20000 2013.000
24.24000 1860.000
24.28000 1887.000
24.32000 1913.000
24.36000 1827.000
24.40000 1898.000
24.44000 1930.000
24.48000 1894.000
24.52000 1846.000
24.56000 1871.000
24.60000 1845.000
24.64000 1896.000
24.68000 1940.000
24.72000 2089.000
24.76000 2142.000
24.80000 2216.000
24.84000 2427.000
24.88000 2728.000
24.92000 3032.000
24.96000 3344.000
25.00000 3917.000
25.04000 4404.000
25.08000 4982.000
25.12000 5413.000
25.16000 5841.000
25.20000 6007.000
25.24000 5883.000
25.28000 5657.000
25.32000 5008.000
25.36000 4483.000
25.40000 3870.000
25.44000 3453.000
25.48000 2948.000
25.52000 2615.000
25.56000 2414.000
25.60000 2221.000
25.64000 2056.000
25.68000 2046.000
25.72000 2128.000
25.76000 2020.000
25.80000 2117.000
25.84000 1967.000
25.88000 2032.000
25.92000 1872.000
25.96000 1912.000
26.00000 1913.000
26.04000 1832.000
26.08000 1803.000
26.12000 1714.000
26.16000 1671.000
26.20000 1631.000
26.24000 1623.000
26.28000 1597.000
26.32000 1591.000
26.36000 1628.000
26.40000 1571.000
26.44000 1531.000
26.48000 1524.000
26.52000 1500.000
26.56000 1546.000
26.60000 1574.000
26.64000 1565.000
26.68000 1548.000
26.72000 1542.000
26.76000 1548.000
26.80000 1563.000
26.84000 1508.000
26.88000 1551.000
26.92000 1543.000
26.96000 1506.000
27.00000 1537.000
27.04000 1544.000
27.08000 1639.000
27.12000 1618.000
27.16000 1593.000
27.20000 1640.000
27.24000 1685.000
27.28000 1702.000
27.32000 1710.000
27.36000 1740.000
27.40000 1796.000
27.44000 1820.000
27.48000 1823.000
27.52000 1800.000
27.56000 1831.000
27.60000 1778.000
27.64000 1745.000
27.68000 1728.000
27.72000 1692.000
27.76000 1715.000
27.80000 1556.000
27.84000 1512.000
27.88000 1476.000
27.92000 1507.000
27.96000 1463.000
28.00000 1425.000
28.04000 1528.000
28.08000 1496.000
28.12000 1573.000
28.16000 1475.000
28.20000 1413.000
28.24000 1492.000
28.28000 1432.000
28.32000 1380.000
28.36000 1465.000
28.40000 1384.000
28.44000 1391.000
28.48000 1461.000
28.52000 1415.000
28.56000 1392.000
28.60000 1393.000
28.64000 1355.000
28.68000 1426.000
28.72000 1433.000
28.76000 1399.000
28.80000 1408.000
28.84000 1328.000
28.88000 1386.000
28.92000 1428.000
28.96000 1451.000
29.00000 1400.000
29.04000 1413.000
29.08000 1379.000
29.12000 1399.000
29.16000 1360.000
29.20000 1350.000
29.24000 1380.000
29.28000 1439.000
29.32000 1446.000
29.36000 1422.000
29.40000 1511.000
29.44000 1463.000
29.48000 1384.000
29.52000 1492.000
29.56000 1516.000
29.60000 1514.000
29.64000 1635.000
29.68000 1565.000
29.72000 1533.000
29.76000 1621.000
29.80000 1695.000
29.84000 1521.000
29.88000 1593.000
29.92000 1596.000
29.96000 1456.000
30.00000 1499.000
30.04000 1438.000
30.08000 1392.000
30.12000 1409.000
30.16000 1337.000
30.20000 1328.000
30.24000 1348.000
30.28000 1325.000
30.32000 1369.000
30.36000 1336.000
30.40000 1282.000
30.44000 1290.000
30.48000 1271.000
30.52000 1380.000
30.56000 1296.000
30.60000 1307.000
30.64000 1228.000
30.68000 1283.000
30.72000 1236.000
30.76000 1252.000
30.80000 1320.000
30.84000 1267.000
30.88000 1326.000
30.92000 1235.000
30.96000 1364.000
31.00000 1235.000
31.04000 1196.000
31.08000 1218.000
31.12000 1262.000
31.16000 1238.000
31.20000 1222.000
31.24000 1178.000
31.28000 1201.000
31.32000 1222.000
31.36000 1254.000
31.40000 1223.000
31.44000 1153.000
31.48000 1140.000
31.52000 1222.000
31.56000 1157.000
31.60000 1165.000
31.64000 1213.000
31.68000 1224.000
31.72000 1207.000
31.76000 1210.000
31.80000 1193.000
31.84000 1284.000
31.88000 1202.000
31.92000 1259.000
31.96000 1267.000
32.00000 1203.000
32.04000 1240.000
32.08000 1239.000
32.12000 1293.000
32.16000 1254.000
32.20000 1305.000
32.24000 1340.000
32.28000 1382.000
32.32000 1364.000
32.36000 1358.000
32.40000 1351.000
32.44000 1350.000
32.48000 1311.000
32.52000 1282.000
32.56000 1287.000
32.60000 1349.000
32.64000 1280.000
32.68000 1261.000
32.72000 1244.000
32.76000 1228.000
32.80000 1173.000
32.84000 1223.000
32.88000 1152.000
32.92000 1131.000
32.96000 1126.000
33.00000 1153.000
33.04000 1116.000
33.08000 1109.000
33.12000 1079.000
33.16000 1025.000
33.20000 1119.000
33.24000 1059.000
33.28000 1098.000
33.32000 1050.000
33.36000 1071.000
33.40000 1068.000
33.44000 1073.000
33.48000 1007.000
33.52000 1085.000
33.56000 1041.000
33.60000 1052.000
33.64000 968.000
33.68000 1048.000
33.72000 997.000
33.76000 994.000
33.80000 1017.000
33.84000 1029.000
33.88000 942.000
33.92000 985.000
33.96000 972.000
34.00000 958.000
34.04000 984.000
34.08000 925.000
34.12000 964.000
34.16000 1005.000
34.20000 1002.000
34.24000 962.000
34.28000 977.000
34.32000 944.000
34.36000 955.000
34.40000 977.000
34.44000 886.000
34.48000 905.000
34.52000 918.000
34.56000 957.000
34.60000 886.000
34.64000 897.000
34.68000 927.000
34.72000 898.000
34.76000 836.000
34.80000 839.000
34.84000 974.000
34.88000 920.000
34.92000 944.000
34.96000 943.000
35.00000 895.000
35.04000 862.000
35.08000 865.000
35.12000 911.000
35.16000 883.000
35.20000 855.000
35.24000 843.000
35.28000 909.000
35.32000 856.000
35.36000 902.000
35.40000 898.000
35.44000 897.000
35.48000 819.000
35.52000 853.000
35.56000 854.000
35.60000 863.000
35.64000 854.000
35.68000 819.000
35.72000 857.000
35.76000 793.000
35.80000 811.000
35.84000 846.000
35.88000 807.000
35.92000 797.000
35.96000 770.000
36.00000 793.000
36.04000 774.000
36.08000 808.000
36.12000 795.000
36.16000 802.000
36.20000 808.000
36.24000 794.000
36.28000 797.000
36.32000 836.000
36.36000 840.000
36.40000 801.000
36.44000 798.000
36.48000 856.000
36.52000 872.000
36.56000 885.000
36.60000 893.000
36.64000 805.000
36.68000 807.000
36.72000 789.000
36.76000 800.000
36.80000 767.000
36.84000 784.000
36.88000 708.000
36.92000 777.000
36.96000 753.000
37.00000 765.000
37.04000 781.000
37.08000 827.000
37.12000 751.000
37.16000 741.000
37.20000 720.000
37.24000 776.000
37.28000 758.000
37.32000 742.000
37.36000 744.000
37.40000 759.000
37.44000 685.000
37.48000 690.000
37.52000 678.000
37.56000 661.000
37.60000 675.000
37.64000 722.000
37.68000 729.000
37.72000 715.000
37.76000 740.000
37.80000 715.000
37.84000 660.000
37.88000 664.000
37.92000 679.000
37.96000 676.000
38.00000 714.000
38.04000 685.000
38.08000 676.000
38.12000 680.000
38.16000 671.000
38.20000 714.000
38.24000 728.000
38.28000 752.000
38.32000 716.000
38.36000 687.000
38.40000 682.000
38.44000 738.000
38.48000 683.000
38.52000 747.000
38.56000 675.000
38.60000 747.000
38.64000 771.000
38.68000 679.000
38.72000 693.000
38.76000 726.000
38.80000 710.000
38.84000 671.000
38.88000 733.000
38.92000 746.000
38.96000 723.000
39.00000 709.000
39.04000 695.000
39.08000 648.000
39.12000 687.000
39.16000 716.000
39.20000 703.000
39.24000 698.000
39.28000 675.000
39.32000 707.000
39.36000 702.000
39.40000 709.000
39.44000 666.000
39.48000 678.000
39.52000 638.000
39.56000 680.000
39.60000 649.000
39.64000 664.000
39.68000 652.000
39.72000 637.000
39.76000 644.000
39.80000 661.000
39.84000 676.000
39.88000 680.000
39.92000 656.000
39.96000 685.000
40.00000 657.000
40.04000 695.000
40.08000 631.000
40.12000 668.000
40.16000 694.000
40.20000 649.000
40.24000 707.000
40.28000 675.000
40.32000 653.000
40.36000 660.000
40.40000 682.000
40.44000 689.000
40.48000 640.000
40.52000 632.000
40.56000 664.000
40.60000 585.000
40.64000 685.000
40.68000 692.000
40.72000 638.000
40.76000 649.000
40.80000 710.000
40.84000 712.000
40.88000 660.000
40.92000 692.000
40.96000 658.000
41.00000 645.000
41.04000 615.000
41.08000 640.000
41.12000 653.000
41.16000 673.000
41.20000 683.000
41.24000 687.000
41.28000 644.000
41.32000 673.000
41.36000 639.000
41.40000 632.000
41.44000 665.000
41.48000 654.000
41.52000 706.000
41.56000 658.000
41.60000 685.000
41.64000 679.000
41.68000 695.000
41.72000 691.000
41.76000 645.000
41.80000 689.000
41.84000 708.000
41.88000 719.000
41.92000 672.000
41.96000 699.000
42.00000 726.000
42.04000 699.000
42.08000 723.000
42.12000 709.000
42.16000 729.000
42.20000 727.000
42.24000 739.000
42.28000 739.000
42.32000 716.000
42.36000 749.000
42.40000 793.000
42.44000 757.000
42.48000 800.000
42.52000 801.000
42.56000 812.000
42.60000 756.000
42.64000 801.000
42.68000 821.000
42.72000 845.000
42.76000 874.000
42.80000 801.000
42.84000 782.000
42.88000 788.000
42.92000 815.000
42.96000 799.000
43.00000 828.000
43.04000 820.000
43.08000 751.000
43.12000 730.000
43.16000 762.000
43.20000 707.000
43.24000 724.000
43.28000 706.000
43.32000 712.000
43.36000 676.000
43.40000 675.000
43.44000 678.000
43.48000 677.000
43.52000 643.000
43.56000 665.000
43.60000 669.000
43.64000 648.000
43.68000 632.000
43.72000 665.000
43.76000 696.000
43.80000 680.000
43.84000 605.000
43.88000 657.000
43.92000 627.000
43.96000 652.000
44.00000 671.000
44.04000 688.000
44.08000 658.000
44.12000 623.000
44.16000 618.000
44.20000 583.000
44.24000 634.000
44.28000 672.000
44.32000 643.000
44.36000 641.000
44.40000 620.000
44.44000 648.000
44.48000 657.000
44.52000 663.000
44.56000 645.000
44.60000 681.000
44.64000 673.000
44.68000 654.000
44.72000 673.000
44.76000 666.000
44.80000 692.000
44.84000 668.000
44.88000 623.000
44.92000 676.000
44.96000 579.000
45.00000 649.000
45.04000 638.000
45.08000 686.000
45.12000 617.000
45.16000 616.000
45.20000 599.000
45.24000 637.000
45.28000 657.000
45.32000 625.000
45.36000 638.000
45.40000 607.000
45.44000 657.000
45.48000 622.000
45.52000 675.000
45.56000 655.000
45.60000 620.000
45.64000 648.000
45.68000 676.000
45.72000 662.000
45.76000 657.000
45.80000 725.000
45.84000 692.000
45.88000 675.000
45.92000 676.000
45.96000 691.000
46.00000 703.000
46.04000 697.000
46.08000 629.000
46.12000 689.000
46.16000 656.000
46.20000 660.000
46.24000 636.000
46.28000 607.000
46.32000 644.000
46.36000 648.000
46.40000 605.000
46.44000 622.000
46.48000 630.000
46.52000 632.000
46.56000 638.000
46.60000 620.000
46.64000 585.000
46.68000 594.000
46.72000 606.000
46.76000 612.000
46.80000 607.000
46.84000 576.000
46.88000 607.000
46.92000 588.000
46.96000 602.000
47.00000 570.000
47.04000 570.000
47.08000 598.000
47.12000 599.000
47.16000 577.000
47.20000 598.000
47.24000 570.000
47.28000 598.000
47.32000 610.000
47.36000 625.000
47.40000 590.000
47.44000 584.000
47.48000 575.000
47.52000 593.000
47.56000 577.000
47.60000 613.000
47.64000 635.000
47.68000 606.000
47.72000 537.000
47.76000 591.000
47.80000 566.000
47.84000 594.000
47.88000 594.000
47.92000 565.000
47.96000 588.000
48.00000 594.000
48.04000 620.000
48.08000 584.000
48.12000 562.000
48.16000 561.000
48.20000 577.000
48.24000 602.000
48.28000 578.000
48.32000 566.000
48.36000 547.000
48.40000 556.000
48.44000 589.000
48.48000 558.000
48.52000 591.000
48.56000 590.000
48.60000 565.000
48.64000 569.000
48.68000 584.000
48.72000 601.000
48.76000 617.000
48.80000 564.000
48.84000 609.000
48.88000 619.000
48.92000 604.000
48.96000 596.000
49.00000 589.000
49.04000 575.000
49.08000 574.000
49.12000 558.000
49.16000 584.000
49.20000 564.000
49.24000 565.000
49.28000 539.000
49.32000 589.000
49.36000 600.000
49.40000 576.000
49.44000 560.000
49.48000 588.000
49.52000 553.000
49.56000 535.000
49.60000 593.000
49.64000 596.000
49.68000 597.000
49.72000 571.000
49.76000 547.000
49.80000 573.000
49.84000 590.000
49.88000 601.000
49.92000 592.000
49.96000 627.000
50.00000 550.000
50.04000 576.000
50.08000 565.000
50.12000 595.000
50.16000 602.000
50.20000 564.000
50.24000 565.000
50.28000 550.000
50.32000 580.000
50.36000 584.000
50.40000 563.000
50.44000 580.000
50.48000 567.000
50.52000 595.000
50.56000 604.000
50.60000 589.000
50.64000 632.000
50.68000 585.000
50.72000 612.000
50.76000 602.000
50.80000 579.000
50.84000 609.000
50.88000 552.000
50.92000 592.000
50.96000 599.000
51.00000 583.000
51.04000 623.000
51.08000 568.000
51.12000 566.000
51.16000 617.000
51.20000 604.000
51.24000 589.000
51.28000 646.000
51.32000 659.000
51.36000 652.000
51.40000 670.000
51.44000 710.000
51.48000 735.000
51.52000 876.000
51.56000 843.000
51.60000 931.000
51.64000 958.000
51.68000 987.000
51.72000 1005.000
51.76000 998.000
51.80000 988.000
51.84000 958.000
51.88000 958.000
51.92000 929.000
51.96000 889.000
52.00000 825.000
52.04000 742.000
52.08000 738.000
52.12000 661.000
52.16000 680.000
52.20000 596.000
52.24000 662.000
52.28000 581.000
52.32000 589.000
52.36000 599.000
52.40000 587.000
52.44000 594.000
52.48000 605.000
52.52000 641.000
52.56000 585.000
52.60000 569.000
52.64000 555.000
52.68000 557.000
52.72000 587.000
52.76000 600.000
52.80000 534.000
52.84000 570.000
52.88000 486.000
52.92000 544.000
52.96000 568.000
53.00000 531.000
53.04000 567.000
53.08000 550.000
53.12000 590.000
53.16000 585.000
53.20000 569.000
53.24000 514.000
53.28000 555.000
53.32000 593.000
53.36000 580.000
53.40000 535.000
53.44000 506.000
53.48000 549.000
53.52000 525.000
53.56000 555.000
53.60000 576.000
53.64000 542.000
53.68000 552.000
53.72000 552.000
53.76000 541.000
53.80000 527.000
53.84000 560.000
53.88000 538.000
53.92000 516.000
53.96000 537.000
54.00000 519.000
54.04000 526.000
54.08000 510.000
54.12000 538.000
54.16000 541.000
54.20000 495.000
54.24000 535.000
54.28000 517.000
54.32000 527.000
54.36000 556.000
54.40000 544.000
54.44000 529.000
54.48000 560.000
54.52000 533.000
54.56000 544.000
54.60000 522.000
54.64000 543.000
54.68000 492.000
54.72000 600.000
54.76000 559.000
54.80000 528.000
54.84000 552.000
54.88000 566.000
54.92000 549.000
54.96000 560.000
55.00000 552.000
55.04000 531.000
55.08000 525.000
55.12000 547.000
55.16000 517.000
55.20000 521.000
55.24000 538.000
55.28000 492.000
55.32000 539.000
55.36000 519.000
55.40000 525.000
55.44000 517.000
55.48000 515.000
55.52000 520.000
55.56000 504.000
55.60000 519.000
55.64000 523.000
55.68000 559.000
55.72000 545.000
55.76000 505.000
55.80000 523.000
55.84000 574.000
55.88000 520.000
55.92000 537.000
55.96000 534.000
56.00000 527.000
56.04000 514.000
56.08000 514.000
56.12000 536.000
56.16000 509.000
56.20000 533.000
56.24000 537.000
56.28000 535.000
56.32000 514.000
56.36000 546.000
56.40000 531.000
56.44000 522.000
56.48000 543.000
56.52000 532.000
56.56000 521.000
56.60000 593.000
56.64000 518.000
56.68000 533.000
56.72000 529.000
56.76000 572.000
56.80000 544.000
56.84000 530.000
56.88000 525.000
56.92000 542.000
56.96000 514.000
57.00000 537.000
57.04000 525.000
57.08000 548.000
57.12000 508.000
57.16000 538.000
57.20000 567.000
57.24000 524.000
57.28000 561.000
57.32000 550.000
57.36000 554.000
57.40000 520.000
57.44000 526.000
57.48000 522.000
57.52000 580.000
57.56000 541.000
57.60000 518.000
57.64000 530.000
57.68000 523.000
57.72000 521.000
57.76000 494.000
57.80000 519.000
57.84000 505.000
57.88000 566.000
57.92000 541.000
57.96000 555.000
58.00000 530.000
58.04000 574.000
58.08000 502.000
58.12000 569.000
58.16000 531.000
58.20000 536.000
58.24000 530.000
58.28000 530.000
58.32000 533.000
58.36000 515.000
58.40000 532.000
58.44000 588.000
58.48000 483.000
58.52000 560.000
58.56000 538.000
58.60000 510.000
58.64000 552.000
58.68000 544.000
58.72000 542.000
58.76000 562.000
58.80000 509.000
58.84000 547.000
58.88000 534.000
58.92000 550.000
58.96000 547.000
59.00000 571.000
59.04000 555.000
59.08000 554.000
59.12000 554.000
59.16000 534.000
59.20000 537.000
59.24000 545.000
59.28000 555.000
59.32000 540.000
59.36000 551.000
59.40000 526.000
59.44000 543.000
59.48000 483.000
59.52000 505.000
59.56000 538.000
59.60000 526.000
59.64000 537.000
59.68000 577.000
59.72000 526.000
59.76000 550.000
59.80000 540.000
59.84000 517.000
59.88000 522.000
59.92000 558.000
59.96000 489.000
60.00000 541.000
60.04000 523.000
60.08000 497.000
60.12000 550.000
60.16000 542.000
60.20000 530.000
60.24000 546.000
60.28000 530.000
60.32000 556.000
60.36000 550.000
60.40000 516.000
60.44000 560.000
60.48000 514.000
60.52000 542.000
60.56000 572.000
60.60000 553.000
60.64000 510.000
60.68000 527.000
60.72000 522.000
60.76000 544.000
60.80000 534.000
60.84000 546.000
60.88000 551.000
60.92000 546.000
60.96000 548.000
61.00000 533.000
61.04000 541.000
61.08000 522.000
61.12000 565.000
61.16000 576.000
61.20000 528.000
61.24000 520.000
61.28000 484.000
61.32000 523.000
61.36000 533.000
61.40000 505.000
61.44000 519.000
61.48000 539.000
61.52000 514.000
61.56000 559.000
61.60000 509.000
61.64000 535.000
61.68000 528.000
61.72000 519.000
61.76000 557.000
61.80000 589.000
61.84000 537.000
61.88000 534.000
61.92000 527.000
61.96000 508.000
62.00000 572.000
62.04000 527.000
62.08000 501.000
62.12000 575.000
62.16000 528.000
62.20000 501.000
62.24000 471.000
62.28000 554.000
62.32000 526.000
62.36000 570.000
62.40000 533.000
62.44000 573.000
62.48000 520.000
62.52000 489.000
62.56000 570.000
62.60000 527.000
62.64000 532.000
62.68000 501.000
62.72000 520.000
62.76000 538.000
62.80000 500.000
62.84000 521.000
62.88000 509.000
62.92000 493.000
62.96000 567.000
63.00000 525.000
63.04000 573.000
63.08000 518.000
63.12000 542.000
63.16000 515.000
63.20000 530.000
63.24000 482.000
63.28000 538.000
63.32000 536.000
63.36000 509.000
63.40000 558.000
63.44000 512.000
63.48000 493.000
63.52000 570.000
63.56000 489.000
63.60000 524.000
63.64000 522.000
63.68000 538.000
63.72000 509.000
63.76000 476.000
63.80000 558.000
63.84000 503.000
63.88000 539.000
63.92000 552.000
63.96000 581.000
64.00000 507.000
64.04000 530.000
64.08000 525.000
64.12000 513.000
64.16000 546.000
64.20000 572.000
64.24000 516.000
64.28000 500.000
64.32000 522.000
64.36000 494.000
64.40000 501.000
64.44000 553.000
64.48000 550.000
64.52000 544.000
64.56000 511.000
64.60000 538.000
64.64000 509.000
64.68000 517.000
64.72000 539.000
64.76000 575.000
64.80000 507.000
64.84000 522.000
64.88000 520.000
64.92000 485.000
64.96000 530.000
65.00000 517.000
65.04000 528.000
65.08000 547.000
65.12000 505.000
65.16000 496.000
65.20000 536.000
65.24000 459.000
65.28000 493.000
65.32000 464.000
65.36000 520.000
65.40000 502.000
65.44000 516.000
65.48000 511.000
65.52000 521.000
65.56000 480.000
65.60000 514.000
65.64000 461.000
65.68000 458.000
65.72000 500.000
65.76000 521.000
65.80000 498.000
65.84000 509.000
65.88000 509.000
65.92000 513.000
65.96000 501.000
66.00000 467.000
66.04000 514.000
66.08000 476.000
66.12000 535.000
66.16000 514.000
66.20000 506.000
66.24000 463.000
66.28000 512.000
66.32000 499.000
66.36000 533.000
66.40000 486.000
66.44000 492.000
66.48000 498.000
66.52000 482.000
66.56000 480.000
66.60000 454.000
66.64000 502.000
66.68000 503.000
66.72000 515.000
66.76000 468.000
66.80000 483.000
66.84000 493.000
66.88000 487.000
66.92000 521.000
66.96000 480.000
67.00000 508.000
67.04000 582.000
67.08000 518.000
67.12000 467.000
67.16000 491.000
67.20000 474.000
67.24000 499.000
67.28000 486.000
67.32000 472.000
67.36000 472.000
67.40000 475.000
67.44000 489.000
67.48000 516.000
67.52000 497.000
67.56000 479.000
67.60000 506.000
67.64000 482.000
67.68000 478.000
67.72000 487.000
67.76000 479.000
67.80000 456.000
67.84000 469.000
67.88000 456.000
67.92000 466.000
67.96000 497.000
68.00000 501.000
68.04000 519.000
68.08000 500.000
68.12000 489.000
68.16000 461.000
68.20000 431.000
68.24000 454.000
68.28000 444.000
68.32000 436.000
68.36000 492.000
68.40000 455.000
68.44000 487.000
68.48000 486.000
68.52000 515.000
68.56000 463.000
68.60000 437.000
68.64000 474.000
68.68000 473.000
68.72000 463.000
68.76000 443.000
68.80000 521.000
68.84000 481.000
68.88000 460.000
68.92000 498.000
68.96000 493.000
69.00000 480.000
69.04000 481.000
69.08000 457.000
69.12000 478.000
69.16000 468.000
69.20000 471.000
69.24000 486.000
69.28000 487.000
69.32000 456.000
69.36000 493.000
69.40000 483.000
69.44000 467.000
69.48000 439.000
69.52000 457.000
69.56000 485.000
69.60000 487.000
69.64000 496.000
69.68000 492.000
69.72000 439.000
69.76000 457.000
69.80000 477.000
69.84000 484.000
69.88000 439.000
69.92000 486.000
