5.00000 2753.000
5.04000 2705.000
5.08000 2797.000
5.12000 2690.000
5.16000 2584.000
5.20000 2686.000
5.24000 2573.000
5.28000 2623.000
5.32000 2551.000
5.36000 2663.000
5.40000 2593.000
5.44000 2587.000
5.48000 2528.000
5.52000 2494.000
5.56000 2467.000
5.60000 2362.000
5.64000 2394.000
5.68000 2351.000
5.72000 2443.000
5.76000 2293.000
5.80000 2363.000
5.84000 2264.000
5.88000 2326.000
5.92000 2285.000
5.96000 2348.000
6.00000 2333.000
6.04000 2186.000
6.08000 2255.000
6.12000 2193.000
6.16000 2260.000
6.20000 2180.000
6.24000 2228.000
6.28000 2172.000
6.32000 2133.000
6.36000 2174.000
6.40000 2134.000
6.44000 2111.000
6.48000 2137.000
6.52000 2008.000
6.56000 2028.000
6.60000 2161.000
6.64000 2072.000
6.68000 2063.000
6.72000 1960.000
6.76000 1922.000
6.80000 2051.000
6.84000 1950.000
6.88000 1907.000
6.92000 2001.000
6.96000 1967.000
7.00000 1928.000
7.04000 1957.000
7.08000 1866.000
7.12000 1932.000
7.16000 1903.000
7.20000 1869.000
7.24000 1843.000
7.28000 1871.000
7.32000 1898.000
7.36000 1854.000
7.40000 1800.000
7.44000 1792.000
7.48000 1745.000
7.52000 1817.000
7.56000 1854.000
7.60000 1844.000
7.64000 1799.000
7.68000 1740.000
7.72000 1820.000
7.76000 1733.000
7.80000 1718.000
7.84000 1776.000
7.88000 1754.000
7.92000 1736.000
7.96000 1696.000
8.00000 1795.000
8.04000 1748.000
8.08000 1764.000
8.12000 1752.000
8.16000 1733.000
8.20000 1691.000
8.24000 1674.000
8.28000 1651.000
8.32000 1738.000
8.36000 1675.000
8.40000 1685.000
8.44000 1635.000
8.48000 1657.000
8.52000 1591.000
8.56000 1574.000
8.60000 1644.000
8.64000 1576.000
8.68000 1595.000
8.72000 1581.000
8.76000 1590.000
8.80000 1589.000
8.84000 1567.000
8.88000 1571.000
8.92000 1559.000
8.96000 1502.000
9.00000 1509.000
9.04000 1543.000
9.08000 1516.000
9.12000 1478.000
9.16000 1484.000
9.20000 1467.000
9.24000 1508.000
9.28000 1443.000
9.32000 1476.000
9.36000 1526.000
9.40000 1449.000
9.44000 1451.000
9.48000 1498.000
9.52000 1328.000
9.56000 1438.000
9.60000 1437.000
9.64000 1418.000
9.68000 1431.000
9.72000 1425.000
9.76000 1383.000
9.80000 1399.000
9.84000 1429.000
9.88000 1383.000
9.92000 1375.000
9.96000 1407.000
10.00000 1422.000
10.04000 1389.000
10.08000 1348.000
10.12000 1438.000
10.16000 1373.000
10.20000 1343.000
10.24000 1367.000
10.28000 1308.000
10.32000 1319.000
10.36000 1268.000
10.40000 1331.000
10.44000 1413.000
10.48000 1301.000
10.52000 1327.000
10.56000 1350.000
10.60000 1348.000
10.64000 1302.000
10.68000 1338.000
10.72000 1296.000
10.76000 1355.000
10.80000 1323.000
10.84000 1316.000
10.88000 1323.000
10.92000 1252.000
10.96000 1268.000
11.00000 1305.000
11.04000 1278.000
11.08000 1320.000
11.12000 1276.000
11.16000 1297.000
11.20000 1270.000
11.24000 1292.000
11.28000 1300.000
11.32000 1233.000
11.36000 1240.000
11.40000 1251.000
11.44000 1169.000
11.48000 1235.000
11.52000 1231.000
11.56000 1263.000
11.60000 1239.000
11.64000 1322.000
11.68000 1299.000
11.72000 1235.000
11.76000 1283.000
11.80000 1243.000
11.84000 1282.000
11.88000 1243.000
11.92000 1341.000
11.96000 1292.000
12.00000 1275.000
12.04000 1316.000
12.08000 1342.000
12.12000 1264.000
12.16000 1283.000
12.20000 1278.000
12.24000 1237.000
12.28000 1312.000
12.32000 1348.000
12.36000 1265.000
12.40000 1266.000
12.44000 1310.000
12.48000 1353.000
12.52000 1299.000
12.56000 1240.000
12.60000 1370.000
12.64000 1312.000
12.68000 1356.000
12.72000 1358.000
12.76000 1416.000
12.80000 1424.000
12.84000 1348.000
12.88000 1422.000
12.92000 1362.000
12.96000 1335.000
13.00000 1294.000
13.04000 1312.000
13.08000 1283.000
13.12000 1223.000
13.16000 1298.000
13.20000 1215.000
13.24000 1195.000
13.28000 1243.000
13.32000 1199.000
13.36000 1215.000
13.40000 1226.000
13.44000 1217.000
13.48000 1226.000
13.52000 1160.000
13.56000 1155.000
13.60000 1164.000
13.64000 1213.000
13.68000 1222.000
13.72000 1190.000
13.76000 1235.000
13.80000 1082.000
13.84000 1213.000
13.88000 1164.000
13.92000 1236.000
13.96000 1144.000
14.00000 1204.000
14.04000 1169.000
14.08000 1173.000
14.12000 1209.000
14.16000 1234.000
14.20000 1211.000
14.24000 1158.000
14.28000 1159.000
14.32000 1082.000
14.36000 1194.000
14.40000 1161.000
14.44000 1173.000
14.48000 1178.000
14.52000 1183.000
14.56000 1138.000
14.60000 1222.000
14.64000 1182.000
14.68000 1136.000
14.72000 1174.000
14.76000 1243.000
14.80000 1155.000
14.84000 1155.000
14.88000 1195.000
14.92000 1238.000
14.96000 1179.000
15.00000 1112.000
15.04000 1109.000
15.08000 1145.000
15.12000 1074.000
15.16000 1192.000
15.20000 1176.000
15.24000 1157.000
15.28000 1181.000
15.32000 1149.000
15.36000 1190.000
15.40000 1202.000
15.44000 1146.000
15.48000 1113.000
15.52000 1178.000
15.56000 1229.000
15.60000 1179.000
15.64000 1171.000
15.68000 1243.000
15.72000 1166.000
15.76000 1156.000
15.80000 1172.000
15.84000 1213.000
15.88000 1190.000
15.92000 1160.000
15.96000 1195.000
16.00000 1161.000
16.04000 1255.000
16.08000 1231.000
16.12000 1186.000
16.16000 1191.000
16.20000 1138.000
16.24000 1142.000
16.28000 1224.000
16.32000 1267.000
16.36000 1231.000
16.40000 1229.000
16.44000 1201.000
16.48000 1184.000
16.52000 1187.000
16.56000 1182.000
16.60000 1194.000
16.64000 1295.000
16.68000 1259.000
16.72000 1281.000
16.76000 1266.000
16.80000 1271.000
16.84000 1276.000
16.88000 1274.000
16.92000 1330.000
16.96000 1217.000
17.00000 1308.000
17.04000 1181.000
17.08000 1265.000
17.12000 1232.000
17.16000 1240.000
17.20000 1270.000
17.24000 1244.000
17.28000 1253.000
17.32000 1295.000
17.36000 1286.000
17.40000 1239.000
17.44000 1271.000
17.48000 1231.000
17.52000 1276.000
17.56000 1265.000
17.60000 1238.000
17.64000 1265.000
17.68000 1286.000
17.72000 1259.000
17.76000 1328.000
17.80000 1287.000
17.84000 1251.000
17.88000 1269.000
17.92000 1252.000
17.96000 1287.000
18.00000 1338.000
18.04000 1381.000
18.08000 1348.000
18.12000 1377.000
18.16000 1251.000
18.20000 1318.000
18.24000 1291.000
18.28000 1334.000
18.32000 1343.000
18.36000 1313.000
18.40000 1359.000
18.44000 1337.000
18.48000 1293.000
18.52000 1295.000
18.56000 1315.000
18.60000 1416.000
18.64000 1413.000
18.68000 1375.000
18.72000 1368.000
18.76000 1308.000
18.80000 1325.000
18.84000 1352.000
18.88000 1299.000
18.92000 1396.000
18.96000 1348.000
19.00000 1380.000
19.04000 1414.000
19.08000 1390.000
19.12000 1424.000
19.16000 1468.000
19.20000 1447.000
19.24000 1398.000
19.28000 1406.000
19.32000 1460.000
19.36000 1473.000
19.40000 1477.000
19.44000 1390.000
19.48000 1429.000
19.52000 1483.000
19.56000 1442.000
19.60000 1395.000
19.64000 1427.000
19.68000 1412.000
19.72000 1520.000
19.76000 1496.000
19.80000 1496.000
19.84000 1509.000
19.88000 1535.000
19.92000 1459.000
19.96000 1507.000
20.00000 1564.000
20.04000 1497.000
20.08000 1469.000
20.12000 1465.000
20.16000 1497.000
20.20000 1524.000
20.24000 1606.000
20.28000 1531.000
20.32000 1532.000
20.36000 1460.000
20.40000 1558.000
20.44000 1554.000
20.48000 1587.000
20.52000 1533.000
20.56000 1549.000
20.60000 1553.000
20.64000 1635.000
20.68000 1615.000
20.72000 1639.000
20.76000 1627.000
20.80000 1677.000
20.84000 1698.000
20.88000 1648.000
20.92000 1642.000
20.96000 1698.000
21.00000 1704.000
21.04000 1783.000
21.08000 1694.000
21.12000 1748.000
21.16000 1682.000
21.20000 1727.000
21.24000 1701.000
21.28000 1770.000
21.32000 1702.000
21.36000 1674.000
21.40000 1749.000
21.44000 1659.000
21.48000 1708.000
21.52000 1733.000
21.56000 1628.000
21.60000 1716.000
21.64000 1613.000
21.68000 1685.000
21.72000 1739.000
21.76000 1681.000
21.80000 1714.000
21.84000 1801.000
21.88000 1753.000
21.92000 1756.000
21.96000 1759.000
22.00000 1741.000
22.04000 1746.000
22.08000 1678.000
22.12000 1654.000
22.16000 1689.000
22.20000 1744.000
22.24000 1687.000
22.28000 1680.000
22.32000 1695.000
22.36000 1719.000
22.40000 1710.000
22.44000 1770.000
22.48000 1715.000
22.52000 1623.000
22.56000 1761.000
22.60000 1853.000
22.64000 1753.000
22.68000 1707.000
22.72000 1821.000
22.76000 1673.000
22.80000 1793.000
22.84000 1762.000
22.88000 1834.000
22.92000 1721.000
22.96000 1800.000
23.00000 1766.000
23.04000 1745.000
23.08000 1814.000
23.12000 1788.000
23.16000 1765.000
23.20000 1763.000
23.24000 1802.000
23.28000 1793.000
23.32000 1778.000
23.36000 1716.000
23.40000 1799.000
23.44000 1706.000
23.48000 1800.000
23.52000 1768.000
23.56000 1791.000
23.60000 1786.000
23.64000 1760.000
23.68000 1787.000
23.72000 1812.000
23.76000 1829.000
23.80000 1838.000
23.84000 1834.000
23.88000 1756.000
23.92000 1855.000
23.96000 1837.000
24.00000 1813.000
24.04000 1772.000
24.08000 1780.000
24.12000 1823.000
24.16000 1802.000
24.20000 1797.000
24.24000 1839.000
24.28000 1818.000
24.32000 1790.000
24.36000 1873.000
24.40000 1798.000
24.44000 1994.000
24.48000 1880.000
24.52000 1956.000
24.56000 1880.000
24.60000 1961.000
24.64000 1903.000
24.68000 1947.000
24.72000 1890.000
24.76000 1957.000
24.80000 2026.000
24.84000 1933.000
24.88000 2043.000
24.92000 2105.000
24.96000 2112.000
25.00000 2174.000
25.04000 2265.000
25.08000 2287.000
25.12000 2198.000
25.16000 2542.000
25.20000 2489.000
25.24000 2636.000
25.28000 2699.000
25.32000 2704.000
25.36000 2742.000
25.40000 2740.000
25.44000 2896.000
25.48000 2820.000
25.52000 2848.000
25.56000 2921.000
25.60000 2782.000
25.64000 2878.000
25.68000 2746.000
25.72000 2745.000
25.76000 2627.000
25.80000 2590.000
25.84000 2695.000
25.88000 2511.000
25.92000 2576.000
25.96000 2547.000
26.00000 2405.000
26.04000 2412.000
26.08000 2198.000
26.12000 2187.000
26.16000 2079.000
26.20000 2155.000
26.24000 2051.000
26.28000 1878.000
26.32000 1997.000
26.36000 1928.000
26.40000 1883.000
26.44000 1861.000
26.48000 1806.000
26.52000 1766.000
26.56000 1799.000
26.60000 1801.000
26.64000 1747.000
26.68000 1784.000
26.72000 1830.000
26.76000 1716.000
26.80000 1749.000
26.84000 1692.000
26.88000 1792.000
26.92000 1688.000
26.96000 1754.000
27.00000 1760.000
27.04000 1709.000
27.08000 1802.000
27.12000 1836.000
27.16000 1830.000
27.20000 1850.000
27.24000 1899.000
27.28000 1913.000
27.32000 1948.000
27.36000 1975.000
27.40000 1981.000
27.44000 2059.000
27.48000 2245.000
27.52000 2153.000
27.56000 2062.000
27.60000 2068.000
27.64000 2120.000
27.68000 2027.000
27.72000 1952.000
27.76000 1968.000
27.80000 1969.000
27.84000 1967.000
27.88000 1965.000
27.92000 1781.000
27.96000 1783.000
28.00000 1746.000
28.04000 1774.000
28.08000 1746.000
28.12000 1708.000
28.16000 1669.000
28.20000 1668.000
28.24000 1615.000
28.28000 1682.000
28.32000 1635.000
28.36000 1674.000
28.40000 1585.000
28.44000 1621.000
28.48000 1667.000
28.52000 1590.000
28.56000 1636.000
28.60000 1639.000
28.64000 1638.000
28.68000 1613.000
28.72000 1494.000
28.76000 1590.000
28.80000 1525.000
28.84000 1540.000
28.88000 1575.000
28.92000 1624.000
28.96000 1550.000
29.00000 1512.000
29.04000 1573.000
29.08000 1570.000
29.12000 1555.000
29.16000 1608.000
29.20000 1510.000
29.24000 1595.000
29.28000 1589.000
29.32000 1599.000
29.36000 1576.000
29.40000 1558.000
29.44000 1685.000
29.48000 1628.000
29.52000 1669.000
29.56000 1649.000
29.60000 1692.000
29.64000 1704.000
29.68000 1719.000
29.72000 1684.000
29.76000 1801.000
29.80000 1786.000
29.84000 1876.000
29.88000 1794.000
29.92000 1827.000
29.96000 1850.000
30.00000 1791.000
30.04000 1725.000
30.08000 1760.000
30.12000 1769.000
30.16000 1609.000
30.20000 1593.000
30.24000 1605.000
30.28000 1643.000
30.32000 1581.000
30.36000 1529.000
30.40000 1429.000
30.44000 1478.000
30.48000 1489.000
30.52000 1462.000
30.56000 1431.000
30.60000 1406.000
30.64000 1383.000
30.68000 1433.000
30.72000 1421.000
30.76000 1426.000
30.80000 1498.000
30.84000 1379.000
30.88000 1405.000
30.92000 1391.000
30.96000 1404.000
31.00000 1357.000
31.04000 1394.000
31.08000 1370.000
31.12000 1354.000
31.16000 1318.000
31.20000 1395.000
31.24000 1329.000
31.28000 1357.000
31.32000 1371.000
31.36000 1346.000
31.40000 1299.000
31.44000 1317.000
31.48000 1272.000
31.52000 1368.000
31.56000 1359.000
31.60000 1315.000
31.64000 1369.000
31.68000 1370.000
31.72000 1325.000
31.76000 1334.000
31.80000 1352.000
31.84000 1323.000
31.88000 1326.000
31.92000 1235.000
31.96000 1323.000
32.00000 1331.000
32.04000 1347.000
32.08000 1328.000
32.12000 1351.000
32.16000 1351.000
32.20000 1377.000
32.24000 1337.000
32.28000 1377.000
32.32000 1335.000
32.36000 1361.000
32.40000 1375.000
32.44000 1352.000
32.48000 1330.000
32.52000 1368.000
32.56000 1410.000
32.60000 1323.000
32.64000 1297.000
32.68000 1379.000
32.72000 1354.000
32.76000 1343.000
32.80000 1257.000
32.84000 1414.000
32.88000 1332.000
32.92000 1317.000
32.96000 1294.000
33.00000 1319.000
33.04000 1224.000
33.08000 1241.000
33.12000 1228.000
33.16000 1228.000
33.20000 1227.000
33.24000 1249.000
33.28000 1194.000
33.32000 1181.000
33.36000 1188.000
33.40000 1137.000
33.44000 1267.000
33.48000 1173.000
33.52000 1196.000
33.56000 1146.000
33.60000 1200.000
33.64000 1116.000
33.68000 1115.000
33.72000 1073.000
33.76000 1100.000
33.80000 1133.000
33.84000 1058.000
33.88000 1087.000
33.92000 1090.000
33.96000 1107.000
34.00000 1080.000
34.04000 1122.000
34.08000 1088.000
34.12000 1113.000
34.16000 1066.000
34.20000 1027.000
34.24000 1089.000
34.28000 1020.000
34.32000 1033.000
34.36000 1064.000
34.40000 1040.000
34.44000 1067.000
34.48000 1023.000
34.52000 1004.000
34.56000 1043.000
34.60000 952.000
34.64000 1043.000
34.68000 999.000
34.72000 1000.000
34.76000 1019.000
34.80000 1030.000
34.84000 981.000
34.88000 1041.000
34.92000 966.000
34.96000 957.000
35.00000 962.000
35.04000 941.000
35.08000 987.000
35.12000 999.000
35.16000 993.000
35.20000 1015.000
35.24000 942.000
35.28000 894.000
35.32000 966.000
35.36000 917.000
35.40000 895.000
35.44000 959.000
35.48000 966.000
35.52000 975.000
35.56000 943.000
35.60000 982.000
35.64000 938.000
35.68000 918.000
35.72000 987.000
35.76000 930.000
35.80000 947.000
35.84000 937.000
35.88000 932.000
35.92000 895.000
35.96000 941.000
36.00000 922.000
36.04000 868.000
36.08000 945.000
36.12000 880.000
36.16000 864.000
36.20000 944.000
36.24000 903.000
36.28000 847.000
36.32000 871.000
36.36000 909.000
36.40000 873.000
36.44000 851.000
36.48000 919.000
36.52000 849.000
36.56000 880.000
36.60000 899.000
36.64000 887.000
36.68000 833.000
36.72000 832.000
36.76000 820.000
36.80000 818.000
36.84000 892.000
36.88000 875.000
36.92000 789.000
36.96000 867.000
37.00000 794.000
37.04000 872.000
37.08000 862.000
37.12000 849.000
37.16000 836.000
37.20000 825.000
37.24000 830.000
37.28000 857.000
37.32000 789.000
37.36000 801.000
37.40000 798.000
37.44000 800.000
37.48000 811.000
37.52000 829.000
37.56000 796.000
37.60000 823.000
37.64000 748.000
37.68000 777.000
37.72000 758.000
37.76000 790.000
37.80000 775.000
37.84000 799.000
37.88000 776.000
37.92000 736.000
37.96000 784.000
38.00000 782.000
38.04000 789.000
38.08000 759.000
38.12000 805.000
38.16000 755.000
38.20000 747.000
38.24000 763.000
38.28000 771.000
38.32000 714.000
38.36000 813.000
38.40000 788.000
38.44000 788.000
38.48000 760.000
38.52000 749.000
38.56000 728.000
38.60000 818.000
38.64000 760.000
38.68000 778.000
38.72000 741.000
38.76000 822.000
38.80000 751.000
38.84000 791.000
38.88000 773.000
38.92000 729.000
38.96000 772.000
39.00000 781.000
39.04000 778.000
39.08000 847.000
39.12000 751.000
39.16000 831.000
39.20000 786.000
39.24000 810.000
39.28000 790.000
39.32000 802.000
39.36000 853.000
39.40000 775.000
39.44000 763.000
39.48000 776.000
39.52000 741.000
39.56000 782.000
39.60000 787.000
39.64000 777.000
39.68000 706.000
39.72000 794.000
39.76000 739.000
39.80000 713.000
39.84000 707.000
39.88000 749.000
39.92000 750.000
39.96000 737.000
40.00000 670.000
40.04000 737.000
40.08000 684.000
40.12000 781.000
40.16000 696.000
40.20000 686.000
40.24000 735.000
40.28000 739.000
40.32000 736.000
40.36000 739.000
40.40000 724.000
40.44000 720.000
40.48000 725.000
40.52000 763.000
40.56000 708.000
40.60000 754.000
40.64000 739.000
40.68000 714.000
40.72000 730.000
40.76000 701.000
40.80000 734.000
40.84000 762.000
40.88000 769.000
40.92000 742.000
40.96000 708.000
41.00000 730.000
41.04000 752.000
41.08000 751.000
41.12000 742.000
41.16000 778.000
41.20000 710.000
41.24000 716.000
41.28000 727.000
41.32000 716.000
41.36000 794.000
41.40000 779.000
41.44000 757.000
41.48000 705.000
41.52000 728.000
41.56000 734.000
41.60000 742.000
41.64000 788.000
41.68000 787.000
41.72000 745.000
41.76000 774.000
41.80000 729.000
41.84000 734.000
41.88000 722.000
41.92000 742.000
41.96000 740.000
42.00000 748.000
42.04000 787.000
42.08000 781.000
42.12000 762.000
42.16000 806.000
42.20000 805.000
42.24000 776.000
42.28000 826.000
42.32000 813.000
42.36000 783.000
42.40000 844.000
42.44000 768.000
42.48000 809.000
42.52000 849.000
42.56000 897.000
42.60000 830.000
42.64000 825.000
42.68000 793.000
42.72000 886.000
42.76000 923.000
42.80000 851.000
42.84000 836.000
42.88000 900.000
42.92000 819.000
42.96000 898.000
43.00000 910.000
43.04000 826.000
43.08000 884.000
43.12000 869.000
43.16000 906.000
43.20000 932.000
43.24000 875.000
43.28000 907.000
43.32000 838.000
43.36000 876.000
43.40000 815.000
43.44000 821.000
43.48000 834.000
43.52000 820.000
43.56000 822.000
43.60000 789.000
43.64000 770.000
43.68000 751.000
43.72000 748.000
43.76000 760.000
43.80000 721.000
43.84000 692.000
43.88000 761.000
43.92000 744.000
43.96000 694.000
44.00000 713.000
44.04000 651.000
44.08000 756.000
44.12000 728.000
44.16000 741.000
44.20000 737.000
44.24000 726.000
44.28000 759.000
44.32000 679.000
44.36000 747.000
44.40000 719.000
44.44000 752.000
44.48000 716.000
44.52000 702.000
44.56000 677.000
44.60000 707.000
44.64000 703.000
44.68000 743.000
44.72000 717.000
44.76000 679.000
44.80000 754.000
44.84000 715.000
44.88000 726.000
44.92000 700.000
44.96000 708.000
45.00000 699.000
45.04000 720.000
45.08000 748.000
45.12000 695.000
45.16000 674.000
45.20000 717.000
45.24000 745.000
45.28000 710.000
45.32000 688.000
45.36000 720.000
45.40000 741.000
45.44000 670.000
45.48000 720.000
45.52000 708.000
45.56000 713.000
45.60000 708.000
45.64000 704.000
45.68000 776.000
45.72000 714.000
45.76000 741.000
45.80000 686.000
45.84000 738.000
45.88000 736.000
45.92000 678.000
45.96000 741.000
46.00000 731.000
46.04000 746.000
46.08000 702.000
46.12000 743.000
46.16000 754.000
46.20000 753.000
46.24000 732.000
46.28000 770.000
46.32000 739.000
46.36000 767.000
46.40000 744.000
46.44000 779.000
46.48000 699.000
46.52000 703.000
46.56000 761.000
46.60000 704.000
46.64000 692.000
46.68000 743.000
46.72000 691.000
46.76000 735.000
46.80000 684.000
46.84000 732.000
46.88000 682.000
46.92000 730.000
46.96000 687.000
47.00000 708.000
47.04000 697.000
47.08000 701.000
47.12000 658.000
47.16000 652.000
47.20000 658.000
47.24000 674.000
47.28000 688.000
47.32000 645.000
47.36000 677.000
47.40000 620.000
47.44000 677.000
47.48000 662.000
47.52000 664.000
47.56000 625.000
47.60000 623.000
47.64000 654.000
47.68000 652.000
47.72000 672.000
47.76000 607.000
47.80000 637.000
47.84000 629.000
47.88000 651.000
47.92000 642.000
47.96000 688.000
48.00000 603.000
48.04000 627.000
48.08000 648.000
48.12000 618.000
48.16000 670.000
48.20000 614.000
48.24000 685.000
48.28000 672.000
48.32000 672.000
48.36000 662.000
48.40000 643.000
48.44000 643.000
48.48000 665.000
48.52000 675.000
48.56000 641.000
48.60000 630.000
48.64000 650.000
48.68000 665.000
48.72000 708.000
48.76000 678.000
48.80000 605.000
48.84000 680.000
48.88000 648.000
48.92000 644.000
48.96000 680.000
49.00000 683.000
49.04000 632.000
49.08000 610.000
49.12000 671.000
49.16000 605.000
49.20000 653.000
49.24000 619.000
49.28000 637.000
49.32000 639.000
49.36000 657.000
49.40000 607.000
49.44000 647.000
49.48000 587.000
49.52000 651.000
49.56000 620.000
49.60000 646.000
49.64000 651.000
49.68000 600.000
49.72000 627.000
49.76000 631.000
49.80000 624.000
49.84000 642.000
49.88000 629.000
49.92000 653.000
49.96000 605.000
50.00000 617.000
50.04000 657.000
50.08000 643.000
50.12000 608.000
50.16000 632.000
50.20000 686.000
50.24000 674.000
50.28000 668.000
50.32000 636.000
50.36000 655.000
50.40000 644.000
50.44000 638.000
50.48000 718.000
50.52000 718.000
50.56000 639.000
50.60000 701.000
50.64000 649.000
50.68000 662.000
50.72000 683.000
50.76000 669.000
50.80000 707.000
50.84000 676.000
50.88000 730.000
50.92000 727.000
50.96000 737.000
51.00000 690.000
51.04000 702.000
51.08000 691.000
51.12000 704.000
51.16000 630.000
51.20000 691.000
51.24000 665.000
51.28000 670.000
51.32000 635.000
51.36000 611.000
51.40000 623.000
51.44000 638.000
51.48000 661.000
51.52000 632.000
51.56000 624.000
51.60000 590.000
51.64000 660.000
51.68000 610.000
51.72000 608.000
51.76000 666.000
51.80000 671.000
51.84000 659.000
51.88000 636.000
51.92000 698.000
51.96000 690.000
52.00000 678.000
52.04000 665.000
52.08000 681.000
52.12000 701.000
52.16000 691.000
52.20000 655.000
52.24000 677.000
52.28000 692.000
52.32000 680.000
52.36000 668.000
52.40000 691.000
52.44000 665.000
52.48000 721.000
52.52000 650.000
52.56000 676.000
52.60000 650.000
52.64000 665.000
52.68000 669.000
52.72000 723.000
52.76000 658.000
52.80000 634.000
52.84000 611.000
52.88000 675.000
52.92000 621.000
52.96000 638.000
53.00000 654.000
53.04000 682.000
53.08000 648.000
53.12000 607.000
53.16000 631.000
53.20000 627.000
53.24000 618.000
53.28000 632.000
53.32000 602.000
53.36000 647.000
53.40000 631.000
53.44000 618.000
53.48000 615.000
53.52000 614.000
53.56000 623.000
53.60000 656.000
53.64000 649.000
53.68000 613.000
53.72000 647.000
53.76000 606.000
53.80000 616.000
53.84000 618.000
53.88000 597.000
53.92000 593.000
53.96000 626.000
54.00000 590.000
54.04000 604.000
54.08000 616.000
54.12000 598.000
54.16000 568.000
54.20000 586.000
54.24000 591.000
54.28000 591.000
54.32000 649.000
54.36000 646.000
54.40000 649.000
54.44000 608.000
54.48000 620.000
54.52000 607.000
54.56000 580.000
54.60000 559.000
54.64000 637.000
54.68000 602.000
54.72000 625.000
54.76000 601.000
54.80000 606.000
54.84000 601.000
54.88000 558.000
54.92000 581.000
54.96000 583.000
55.00000 543.000
55.04000 625.000
55.08000 598.000
55.12000 561.000
55.16000 579.000
55.20000 603.000
55.24000 626.000
55.28000 617.000
55.32000 590.000
55.36000 585.000
55.40000 569.000
55.44000 590.000
55.48000 642.000
55.52000 598.000
55.56000 616.000
55.60000 608.000
55.64000 595.000
55.68000 590.000
55.72000 644.000
55.76000 588.000
55.80000 631.000
55.84000 593.000
55.88000 643.000
55.92000 639.000
55.96000 566.000
56.00000 591.000
56.04000 603.000
56.08000 582.000
56.12000 609.000
56.16000 616.000
56.20000 562.000
56.24000 550.000
56.28000 561.000
56.32000 584.000
56.36000 613.000
56.40000 596.000
56.44000 550.000
56.48000 567.000
56.52000 594.000
56.56000 561.000
56.60000 580.000
56.64000 592.000
56.68000 624.000
56.72000 549.000
56.76000 616.000
56.80000 577.000
56.84000 597.000
56.88000 601.000
56.92000 590.000
56.96000 647.000
57.00000 584.000
57.04000 602.000
57.08000 606.000
57.12000 585.000
57.16000 597.000
57.20000 623.000
57.24000 608.000
57.28000 651.000
57.32000 583.000
57.36000 604.000
57.40000 563.000
57.44000 651.000
57.48000 580.000
57.52000 567.000
57.56000 564.000
57.60000 565.000
57.64000 569.000
57.68000 648.000
57.72000 593.000
57.76000 590.000
57.80000 604.000
57.84000 575.000
57.88000 621.000
57.92000 601.000
57.96000 617.000
58.00000 582.000
58.04000 562.000
58.08000 627.000
58.12000 578.000
58.16000 595.000
58.20000 621.000
58.24000 632.000
58.28000 618.000
58.32000 580.000
58.36000 606.000
58.40000 610.000
58.44000 592.000
58.48000 623.000
58.52000 590.000
58.56000 612.000
58.60000 566.000
58.64000 594.000
58.68000 592.000
58.72000 626.000
58.76000 601.000
58.80000 570.000
58.84000 584.000
58.88000 594.000
58.92000 550.000
58.96000 608.000
59.00000 587.000
59.04000 588.000
59.08000 643.000
59.12000 639.000
59.16000 621.000
59.20000 575.000
59.24000 607.000
59.28000 597.000
59.32000 575.000
59.36000 587.000
59.40000 603.000
59.44000 575.000
59.48000 591.000
59.52000 603.000
59.56000 607.000
59.60000 582.000
59.64000 562.000
59.68000 626.000
59.72000 600.000
59.76000 602.000
59.80000 603.000
59.84000 568.000
59.88000 580.000
59.92000 593.000
