3.00000 12119.000
3.04000 12101.000
3.08000 11743.000
3.12000 11746.000
3.16000 11813.000
3.20000 11756.000
3.24000 11848.000
3.28000 11527.000
3.32000 11543.000
3.36000 11248.000
3.40000 11146.000
3.44000 11235.000
3.48000 10926.000
3.52000 10647.000
3.56000 10725.000
3.60000 10882.000
3.64000 10676.000
3.68000 10566.000
3.72000 10592.000
3.76000 10507.000
3.80000 10369.000
3.84000 10357.000
3.88000 10373.000
3.92000 10196.000
3.96000 10208.000
4.00000 10028.000
4.04000 10030.000
4.08000 9912.000
4.12000 9858.000
4.16000 9881.000
4.20000 9715.000
4.24000 9798.000
4.28000 9725.000
4.32000 9693.000
4.36000 9562.000
4.40000 9519.000
4.44000 9512.000
4.48000 9323.000
4.52000 9427.000
4.56000 9217.000
4.60000 9379.000
4.64000 9348.000
4.68000 9293.000
4.72000 9157.000
4.76000 9122.000
4.80000 9100.000
4.84000 9049.000
4.88000 9269.000
4.92000 9289.000
4.96000 9000.000
5.00000 9303.000
5.04000 9338.000
5.08000 9892.000
5.12000 10222.000
5.16000 10875.000
5.20000 11060.000
5.24000 11472.000
5.28000 11708.000
5.32000 11957.000
5.36000 11922.000
5.40000 12463.000
5.44000 12303.000
5.48000 12110.000
5.52000 11899.000
5.56000 11933.000
5.60000 11713.000
5.64000 11676.000
5.68000 11597.000
5.72000 11438.000
5.76000 11239.000
5.80000 11264.000
5.84000 11131.000
5.88000 10914.000
5.92000 10874.000
5.96000 10811.000
6.00000 10551.000
6.04000 10603.000
6.08000 10471.000
6.12000 10427.000
6.16000 10078.000
6.20000 10273.000
6.24000 10116.000
6.28000 10047.000
6.32000 9829.000
6.36000 9985.000
6.40000 9637.000
6.44000 9619.000
6.48000 9569.000
6.52000 9334.000
6.56000 9274.000
6.60000 9037.000
6.64000 9062.000
6.68000 9034.000
6.72000 8708.000
6.76000 8929.000
6.80000 8839.000
6.84000 8646.000
6.88000 8513.000
6.92000 8481.000
6.96000 8380.000
7.00000 8380.000
7.04000 8296.000
7.08000 8360.000
7.12000 7950.000
7.16000 7929.000
7.20000 8010.000
7.24000 7953.000
7.28000 7673.000
7.32000 7556.000
7.36000 7608.000
7.40000 7530.000
7.44000 7235.000
7.48000 7206.000
7.52000 7302.000
7.56000 7411.000
7.60000 7120.000
7.64000 7128.000
7.68000 7081.000
7.72000 7065.000
7.76000 7279.000
7.80000 7377.000
7.84000 7826.000
7.88000 9027.000
7.92000 10985.000
7.96000 13539.000
8.00000 15596.000
8.04000 17512.000
8.08000 18989.000
8.12000 19888.000
8.16000 19105.000
8.20000 17522.000
8.24000 15186.000
8.28000 12653.000
8.32000 10224.000
8.36000 8298.000
8.40000 7123.000
8.44000 6520.000
8.48000 6122.000
8.52000 5910.000
8.56000 5798.000
8.60000 5537.000
8.64000 5592.000
8.68000 5451.000
8.72000 5417.000
8.76000 5442.000
8.80000 5346.000
8.84000 5168.000
8.88000 5212.000
8.92000 5179.000
8.96000 5234.000
9.00000 5094.000
9.04000 5100.000
9.08000 5135.000
9.12000 5046.000
9.16000 4969.000
9.20000 4975.000
9.24000 4890.000
9.28000 4968.000
9.32000 4953.000
9.36000 4953.000
9.40000 5077.000
9.44000 5444.000
9.48000 5686.000
9.52000 6363.000
9.56000 6822.000
9.60000 7287.000
9.64000 7665.000
9.68000 7886.000
9.72000 7757.000
9.76000 7424.000
9.80000 6912.000
9.84000 6196.000
9.88000 5631.000
9.92000 5197.000
9.96000 4908.000
10.00000 4562.000
10.04000 4421.000
10.08000 4304.000
10.12000 4362.000
10.16000 4389.000
10.20000 4354.000
10.24000 4281.000
10.28000 4316.000
10.32000 4308.000
10.36000 4291.000
10.40000 4485.000
10.44000 4357.000
10.48000 4463.000
10.52000 4622.000
10.56000 4710.000
10.60000 4440.000
10.64000 4412.000
10.68000 4315.000
10.72000 4252.000
10.76000 4133.000
10.80000 3947.000
10.84000 3883.000
10.88000 3878.000
10.92000 3862.000
10.96000 3768.000
11.00000 3792.000
11.04000 3735.000
11.08000 3763.000
11.12000 3712.000
11.16000 3723.000
11.20000 3785.000
11.24000 3676.000
11.28000 3604.000
11.32000 3575.000
11.36000 3613.000
11.40000 3584.000
11.44000 3451.000
11.48000 3530.000
11.52000 3459.000
11.56000 3456.000
11.60000 3514.000
11.64000 3492.000
11.68000 3498.000
11.72000 3428.000
11.76000 3453.000
11.80000 3528.000
11.84000 3550.000
11.88000 3477.000
11.92000 3359.000
11.96000 3441.000
12.00000 3321.000
12.04000 3381.000
12.08000 3392.000
12.12000 3348.000
12.16000 3298.000
12.20000 3401.000
12.24000 3347.000
12.28000 3337.000
12.32000 3311.000
12.36000 3347.000
12.40000 3300.000
12.44000 3260.000
12.48000 3282.000
12.52000 3293.000
12.56000 3251.000
12.60000 3197.000
12.64000 3230.000
12.68000 3110.000
12.72000 3000.000
12.76000 3099.000
12.80000 2983.000
12.84000 3071.000
12.88000 3028.000
12.92000 3091.000
12.96000 2968.000
13.00000 2913.000
13.04000 2962.000
13.08000 2934.000
13.12000 2807.000
13.16000 2859.000
13.20000 2982.000
13.24000 2851.000
13.28000 2794.000
13.32000 2866.000
13.36000 2873.000
13.40000 2724.000
13.44000 2829.000
13.48000 2849.000
13.52000 2757.000
13.56000 2765.000
13.60000 2779.000
13.64000 2716.000
13.68000 2696.000
13.72000 2786.000
13.76000 2727.000
13.80000 2893.000
13.84000 2676.000
13.88000 2767.000
13.92000 2684.000
13.96000 2682.000
14.00000 2655.000
14.04000 2688.000
14.08000 2693.000
14.12000 2700.000
14.16000 2821.000
14.20000 2853.000
14.24000 2785.000
14.28000 2661.000
14.32000 2854.000
14.36000 2725.000
14.40000 2693.000
14.44000 2742.000
14.48000 2674.000
14.52000 2631.000
14.56000 2766.000
14.60000 2702.000
14.64000 2702.000
14.68000 2701.000
14.72000 2725.000
14.76000 2655.000
14.80000 2800.000
14.84000 2686.000
14.88000 2771.000
14.92000 2693.000
14.96000 2762.000
15.00000 2660.000
15.04000 2676.000
15.08000 2763.000
15.12000 2711.000
15.16000 2624.000
15.20000 2644.000
15.24000 2735.000
15.28000 2687.000
15.32000 2698.000
15.36000 2691.000
15.40000 2717.000
15.44000 2718.000
15.48000 2755.000
15.52000 2763.000
15.56000 2793.000
15.60000 2694.000
15.64000 2693.000
15.68000 2827.000
15.72000 2765.000
15.76000 2696.000
15.80000 2695.000
15.84000 2804.000
15.88000 2772.000
15.92000 2803.000
15.96000 2722.000
16.00000 3029.000
16.04000 3118.000
16.08000 3321.000
16.12000 3866.000
16.16000 5182.000
16.20000 6757.000
16.24000 8632.000
16.28000 10331.000
16.32000 11827.000
16.36000 12369.000
16.40000 12489.000
16.44000 11444.000
16.48000 10086.000
16.52000 8372.000
16.56000 6530.000
16.60000 4879.000
16.64000 3834.000
16.68000 3170.000
16.72000 3078.000
16.76000 2949.000
16.80000 2941.000
16.84000 2838.000
16.88000 2889.000
16.92000 2927.000
16.96000 2810.000
17.00000 2931.000
17.04000 2833.000
17.08000 2844.000
17.12000 2882.000
17.16000 2897.000
17.20000 2927.000
17.24000 2882.000
17.28000 2829.000
17.32000 2860.000
17.36000 2848.000
17.40000 2888.000
17.44000 2797.000
17.48000 2800.000
17.52000 2939.000
17.56000 2884.000
17.60000 2939.000
17.64000 2936.000
17.68000 2909.000
17.72000 2905.000
17.76000 2940.000
17.80000 2834.000
17.84000 2989.000
17.88000 2900.000
17.92000 3073.000
17.96000 2885.000
18.00000 2885.000
18.04000 2963.000
18.08000 2921.000
18.12000 2988.000
18.16000 3031.000
18.20000 3008.000
18.24000 3026.000
18.28000 3081.000
18.32000 3098.000
18.36000 3012.000
18.40000 3024.000
18.44000 2999.000
18.48000 3069.000
18.52000 2961.000
18.56000 3081.000
18.60000 3147.000
18.64000 3175.000
18.68000 3200.000
18.72000 3106.000
18.76000 3170.000
18.80000 3043.000
18.84000 3174.000
18.88000 3110.000
18.92000 3228.000
18.96000 3332.000
19.00000 3211.000
19.04000 3200.000
19.08000 3301.000
19.12000 3292.000
19.16000 3388.000
19.20000 3408.000
19.24000 3590.000
19.28000 3882.000
19.32000 4189.000
19.36000 4988.000
19.40000 5539.000
19.44000 6388.000
19.48000 7293.000
19.52000 7788.000
19.56000 7983.000
19.60000 8058.000
19.64000 7456.000
19.68000 6765.000
19.72000 5970.000
19.76000 5037.000
19.80000 4509.000
19.84000 3978.000
19.88000 3826.000
19.92000 3643.000
19.96000 3479.000
20.00000 3374.000
20.04000 3449.000
20.08000 3570.000
20.12000 3324.000
20.16000 3418.000
20.20000 3489.000
20.24000 3437.000
20.28000 3380.000
20.32000 3444.000
20.36000 3547.000
20.40000 3453.000
20.44000 3517.000
20.48000 3534.000
20.52000 3518.000
20.56000 3436.000
20.60000 3465.000
20.64000 3493.000
20.68000 3483.000
20.72000 3550.000
20.76000 3628.000
20.80000 3555.000
20.84000 3544.000
20.88000 3512.000
20.92000 3617.000
20.96000 3601.000
21.00000 3447.000
21.04000 3548.000
21.08000 3561.000
21.12000 3569.000
21.16000 3657.000
21.20000 3715.000
21.24000 3561.000
21.28000 3656.000
21.32000 3516.000
21.36000 3559.000
21.40000 3547.000
21.44000 3594.000
21.48000 3630.000
21.52000 3579.000
21.56000 3776.000
21.60000 3605.000
21.64000 3678.000
21.68000 3627.000
21.72000 3732.000
21.76000 3568.000
21.80000 3655.000
21.84000 3678.000
21.88000 3634.000
21.92000 3807.000
21.96000 3833.000
22.00000 3804.000
22.04000 3762.000
22.08000 3910.000
22.12000 3905.000
22.16000 3912.000
22.20000 3991.000
22.24000 3943.000
22.28000 4002.000
22.32000 4027.000
22.36000 3853.000
22.40000 3956.000
22.44000 3981.000
22.48000 3911.000
22.52000 3779.000
22.56000 3817.000
22.60000 3706.000
22.64000 3785.000
22.68000 3794.000
22.72000 3961.000
22.76000 3685.000
22.80000 3833.000
22.84000 3877.000
22.88000 3848.000
22.92000 3963.000
22.96000 3838.000
23.00000 3870.000
23.04000 3937.000
23.08000 3886.000
23.12000 3816.000
23.16000 3929.000
23.20000 3879.000
23.24000 3870.000
23.28000 3787.000
23.32000 3957.000
23.36000 3816.000
23.40000 4040.000
23.44000 3989.000
23.48000 4080.000
23.52000 4164.000
23.56000 4262.000
23.60000 4328.000
23.64000 4399.000
23.68000 4296.000
23.72000 4333.000
23.76000 4284.000
23.80000 4370.000
23.84000 4434.000
23.88000 4427.000
23.92000 4318.000
23.96000 4448.000
24.00000 4406.000
24.04000 4378.000
24.08000 4658.000
24.12000 4701.000
24.16000 4767.000
24.20000 4975.000
24.24000 5248.000
24.28000 5500.000
24.32000 6250.000
24.36000 7148.000
24.40000 9110.000
24.44000 12775.000
24.48000 21347.000
24.52000 36025.000
24.56000 54171.000
24.60000 74207.000
24.64000 92045.000
24.68000 106094.000
24.72000 113852.000
24.76000 111584.000
24.80000 100801.000
24.84000 83897.000
24.88000 65134.000
24.92000 46370.000
24.96000 30993.000
25.00000 22047.000
25.04000 17050.000
25.08000 15301.000
25.12000 14285.000
25.16000 12972.000
25.20000 11717.000
25.24000 10223.000
25.28000 8514.000
25.32000 7031.000
25.36000 6179.000
25.40000 5295.000
25.44000 4803.000
25.48000 4559.000
25.52000 4306.000
25.56000 4116.000
25.60000 4151.000
25.64000 4053.000
25.68000 3892.000
25.72000 3967.000
25.76000 3843.000
25.80000 3925.000
25.84000 3772.000
25.88000 3865.000
25.92000 3744.000
25.96000 3809.000
26.00000 3838.000
26.04000 3781.000
26.08000 3746.000
26.12000 3760.000
26.16000 3613.000
26.20000 3679.000
26.24000 3648.000
26.28000 3701.000
26.32000 3670.000
26.36000 3540.000
26.40000 3531.000
26.44000 3518.000
26.48000 3598.000
26.52000 3532.000
26.56000 3553.000
26.60000 3551.000
26.64000 3574.000
26.68000 3545.000
26.72000 3488.000
26.76000 3576.000
26.80000 3496.000
26.84000 3558.000
26.88000 3521.000
26.92000 3431.000
26.96000 3478.000
27.00000 3490.000
27.04000 3452.000
27.08000 3485.000
27.12000 3499.000
27.16000 3466.000
27.20000 3389.000
27.24000 3382.000
27.28000 3418.000
27.32000 3386.000
27.36000 3363.000
27.40000 3386.000
27.44000 3366.000
27.48000 3436.000
27.52000 3264.000
27.56000 3292.000
27.60000 3395.000
27.64000 3395.000
27.68000 3187.000
27.72000 3287.000
27.76000 3261.000
27.80000 3291.000
27.84000 3296.000
27.88000 3252.000
27.92000 3286.000
27.96000 3285.000
28.00000 3278.000
28.04000 3239.000
28.08000 3273.000
28.12000 3221.000
28.16000 3196.000
28.20000 3127.000
28.24000 3226.000
28.28000 3247.000
28.32000 3123.000
28.36000 3216.000
28.40000 3216.000
28.44000 3175.000
28.48000 3210.000
28.52000 3324.000
28.56000 3193.000
28.60000 3240.000
28.64000 3110.000
28.68000 3101.000
28.72000 3132.000
28.76000 3071.000
28.80000 3206.000
28.84000 3182.000
28.88000 3190.000
28.92000 3134.000
28.96000 3149.000
29.00000 3175.000
29.04000 3069.000
29.08000 3160.000
29.12000 3221.000
29.16000 3151.000
29.20000 3187.000
29.24000 3268.000
29.28000 3261.000
29.32000 3436.000
29.36000 3553.000
29.40000 3817.000
29.44000 4020.000
29.48000 4320.000
29.52000 4625.000
29.56000 4578.000
29.60000 4612.000
29.64000 4520.000
29.68000 4291.000
29.72000 4053.000
29.76000 3731.000
29.80000 3620.000
29.84000 3258.000
29.88000 3220.000
29.92000 3190.000
29.96000 3129.000
30.00000 3033.000
30.04000 3020.000
30.08000 3039.000
30.12000 3031.000
30.16000 2961.000
30.20000 2934.000
30.24000 3001.000
30.28000 2946.000
30.32000 3029.000
30.36000 2893.000
30.40000 2963.000
30.44000 2873.000
30.48000 2919.000
30.52000 2950.000
30.56000 2815.000
30.60000 2826.000
30.64000 2888.000
30.68000 2796.000
30.72000 2950.000
30.76000 2780.000
30.80000 2818.000
30.84000 2855.000
30.88000 2809.000
30.92000 2813.000
30.96000 2808.000
31.00000 2768.000
31.04000 2779.000
31.08000 2832.000
31.12000 2863.000
31.16000 2814.000
31.20000 2795.000
31.24000 2887.000
31.28000 2743.000
31.32000 2848.000
31.36000 2911.000
31.40000 2899.000
31.44000 2885.000
31.48000 2922.000
31.52000 2961.000
31.56000 2816.000
31.60000 2914.000
31.64000 2685.000
31.68000 2774.000
31.72000 2823.000
31.76000 2654.000
31.80000 2595.000
31.84000 2661.000
31.88000 2723.000
31.92000 2677.000
31.96000 2621.000
32.00000 2555.000
32.04000 2637.000
32.08000 2579.000
32.12000 2680.000
32.16000 2627.000
32.20000 2515.000
32.24000 2614.000
32.28000 2586.000
32.32000 2461.000
32.36000 2574.000
32.40000 2568.000
32.44000 2588.000
32.48000 2529.000
32.52000 2502.000
32.56000 2554.000
32.60000 2556.000
32.64000 2492.000
32.68000 2500.000
32.72000 2475.000
32.76000 2466.000
32.80000 2386.000
32.84000 2509.000
32.88000 2473.000
32.92000 2391.000
32.96000 2472.000
33.00000 2416.000
33.04000 2451.000
33.08000 2373.000
33.12000 2360.000
33.16000 2463.000
33.20000 2345.000
33.24000 2343.000
33.28000 2332.000
33.32000 2424.000
33.36000 2308.000
33.40000 2382.000
33.44000 2346.000
33.48000 2213.000
33.52000 2295.000
33.56000 2325.000
33.60000 2247.000
33.64000 2260.000
33.68000 2290.000
33.72000 2329.000
33.76000 2228.000
33.80000 2247.000
33.84000 2229.000
33.88000 2244.000
33.92000 2300.000
33.96000 2266.000
34.00000 2129.000
34.04000 2223.000
34.08000 2217.000
34.12000 2090.000
34.16000 2115.000
34.20000 2209.000
34.24000 2121.000
34.28000 2181.000
34.32000 2072.000
34.36000 2118.000
34.40000 2061.000
34.44000 2075.000
34.48000 2199.000
34.52000 2064.000
34.56000 2067.000
34.60000 2049.000
34.64000 2063.000
34.68000 2036.000
34.72000 1993.000
34.76000 2118.000
34.80000 2010.000
34.84000 2073.000
34.88000 2016.000
34.92000 2051.000
34.96000 2101.000
35.00000 1948.000
35.04000 2004.000
35.08000 1944.000
35.12000 2061.000
35.16000 1994.000
35.20000 1941.000
35.24000 2046.000
35.28000 1926.000
35.32000 1860.000
35.36000 1905.000
35.40000 1865.000
35.44000 1976.000
35.48000 1874.000
35.52000 1855.000
35.56000 1809.000
35.60000 1922.000
35.64000 1932.000
35.68000 1879.000
35.72000 1843.000
35.76000 1723.000
35.80000 1861.000
35.84000 1853.000
35.88000 1836.000
35.92000 1806.000
35.96000 1819.000
36.00000 1769.000
36.04000 1830.000
36.08000 1905.000
36.12000 1744.000
36.16000 1827.000
36.20000 1837.000
36.24000 1731.000
36.28000 1813.000
36.32000 1770.000
36.36000 1652.000
36.40000 1764.000
36.44000 1741.000
36.48000 1706.000
36.52000 1679.000
36.56000 1667.000
36.60000 1708.000
36.64000 1718.000
36.68000 1770.000
36.72000 1677.000
36.76000 1686.000
36.80000 1590.000
36.84000 1620.000
36.88000 1664.000
36.92000 1676.000
36.96000 1653.000
37.00000 1682.000
37.04000 1597.000
37.08000 1570.000
37.12000 1735.000
37.16000 1656.000
37.20000 1628.000
37.24000 1652.000
37.28000 1599.000
37.32000 1640.000
37.36000 1528.000
37.40000 1685.000
37.44000 1588.000
37.48000 1573.000
37.52000 1655.000
37.56000 1618.000
37.60000 1590.000
37.64000 1589.000
37.68000 1502.000
37.72000 1563.000
37.76000 1596.000
37.80000 1591.000
37.84000 1637.000
37.88000 1646.000
37.92000 1605.000
37.96000 1603.000
38.00000 1520.000
38.04000 1538.000
38.08000 1542.000
38.12000 1516.000
38.16000 1480.000
38.20000 1557.000
38.24000 1556.000
38.28000 1564.000
38.32000 1542.000
38.36000 1619.000
38.40000 1582.000
38.44000 1538.000
38.48000 1514.000
38.52000 1553.000
38.56000 1493.000
38.60000 1546.000
38.64000 1557.000
38.68000 1532.000
38.72000 1482.000
38.76000 1493.000
38.80000 1487.000
38.84000 1594.000
38.88000 1506.000
38.92000 1506.000
38.96000 1471.000
39.00000 1503.000
39.04000 1460.000
39.08000 1426.000
39.12000 1510.000
39.16000 1462.000
39.20000 1482.000
39.24000 1449.000
39.28000 1494.000
39.32000 1420.000
39.36000 1461.000
39.40000 1469.000
39.44000 1463.000
39.48000 1505.000
39.52000 1448.000
39.56000 1509.000
39.60000 1430.000
39.64000 1441.000
39.68000 1380.000
39.72000 1383.000
39.76000 1462.000
39.80000 1425.000
39.84000 1486.000
39.88000 1424.000
39.92000 1493.000
39.96000 1484.000
40.00000 1427.000
40.04000 1434.000
40.08000 1488.000
40.12000 1406.000
40.16000 1460.000
40.20000 1443.000
40.24000 1454.000
40.28000 1411.000
40.32000 1443.000
40.36000 1468.000
40.40000 1485.000
40.44000 1458.000
40.48000 1458.000
40.52000 1350.000
40.56000 1442.000
40.60000 1471.000
40.64000 1420.000
40.68000 1384.000
40.72000 1532.000
40.76000 1449.000
40.80000 1497.000
40.84000 1414.000
40.88000 1535.000
40.92000 1476.000
40.96000 1476.000
41.00000 1457.000
41.04000 1445.000
41.08000 1458.000
41.12000 1434.000
41.16000 1469.000
41.20000 1496.000
41.24000 1464.000
41.28000 1523.000
41.32000 1500.000
41.36000 1427.000
41.40000 1506.000
41.44000 1473.000
41.48000 1453.000
41.52000 1516.000
41.56000 1557.000
41.60000 1669.000
41.64000 1789.000
41.68000 1928.000
41.72000 2105.000
41.76000 2289.000
41.80000 2559.000
41.84000 2789.000
41.88000 2841.000
41.92000 2818.000
41.96000 2774.000
42.00000 2578.000
42.04000 2385.000
42.08000 2056.000
42.12000 1880.000
42.16000 1795.000
42.20000 1612.000
42.24000 1620.000
42.28000 1601.000
42.32000 1569.000
42.36000 1511.000
42.40000 1447.000
42.44000 1528.000
42.48000 1489.000
42.52000 1494.000
42.56000 1431.000
42.60000 1420.000
42.64000 1421.000
42.68000 1462.000
42.72000 1429.000
42.76000 1436.000
42.80000 1452.000
42.84000 1529.000
42.88000 1474.000
42.92000 1500.000
42.96000 1504.000
43.00000 1461.000
43.04000 1491.000
43.08000 1476.000
43.12000 1403.000
43.16000 1535.000
43.20000 1458.000
43.24000 1418.000
43.28000 1443.000
43.32000 1395.000
43.36000 1437.000
43.40000 1454.000
43.44000 1431.000
43.48000 1426.000
43.52000 1485.000
43.56000 1508.000
43.60000 1481.000
43.64000 1479.000
43.68000 1438.000
43.72000 1483.000
43.76000 1471.000
43.80000 1426.000
43.84000 1462.000
43.88000 1444.000
43.92000 1450.000
43.96000 1422.000
44.00000 1361.000
44.04000 1471.000
44.08000 1406.000
44.12000 1322.000
44.16000 1376.000
44.20000 1403.000
44.24000 1375.000
44.28000 1352.000
44.32000 1379.000
44.36000 1365.000
44.40000 1364.000
44.44000 1410.000
44.48000 1394.000
44.52000 1373.000
44.56000 1372.000
44.60000 1355.000
44.64000 1410.000
44.68000 1376.000
44.72000 1323.000
44.76000 1373.000
44.80000 1341.000
44.84000 1391.000
44.88000 1392.000
44.92000 1318.000
44.96000 1438.000
45.00000 1403.000
45.04000 1386.000
45.08000 1476.000
45.12000 1445.000
45.16000 1375.000
45.20000 1313.000
45.24000 1383.000
45.28000 1337.000
45.32000 1421.000
45.36000 1379.000
45.40000 1319.000
45.44000 1373.000
45.48000 1336.000
45.52000 1432.000
45.56000 1382.000
45.60000 1296.000
45.64000 1279.000
45.68000 1414.000
45.72000 1350.000
45.76000 1332.000
45.80000 1337.000
45.84000 1381.000
45.88000 1305.000
45.92000 1329.000
45.96000 1366.000
46.00000 1373.000
46.04000 1313.000
46.08000 1281.000
46.12000 1271.000
46.16000 1276.000
46.20000 1243.000
46.24000 1289.000
46.28000 1307.000
46.32000 1388.000
46.36000 1282.000
46.40000 1309.000
46.44000 1343.000
46.48000 1243.000
46.52000 1272.000
46.56000 1302.000
46.60000 1285.000
46.64000 1307.000
46.68000 1283.000
46.72000 1264.000
46.76000 1292.000
46.80000 1327.000
46.84000 1283.000
46.88000 1315.000
46.92000 1299.000
46.96000 1323.000
47.00000 1333.000
47.04000 1328.000
47.08000 1295.000
47.12000 1267.000
47.16000 1251.000
47.20000 1302.000
47.24000 1369.000
47.28000 1315.000
47.32000 1274.000
47.36000 1217.000
47.40000 1270.000
47.44000 1220.000
47.48000 1314.000
47.52000 1291.000
47.56000 1289.000
47.60000 1239.000
47.64000 1262.000
47.68000 1257.000
47.72000 1242.000
47.76000 1281.000
47.80000 1290.000
47.84000 1366.000
47.88000 1290.000
47.92000 1314.000
47.96000 1279.000
48.00000 1282.000
48.04000 1279.000
48.08000 1263.000
48.12000 1301.000
48.16000 1317.000
48.20000 1249.000
48.24000 1291.000
48.28000 1285.000
48.32000 1235.000
48.36000 1304.000
48.40000 1236.000
48.44000 1269.000
48.48000 1325.000
48.52000 1306.000
48.56000 1298.000
48.60000 1314.000
48.64000 1306.000
48.68000 1285.000
48.72000 1258.000
48.76000 1314.000
48.80000 1213.000
48.84000 1282.000
48.88000 1262.000
48.92000 1242.000
48.96000 1321.000
49.00000 1313.000
49.04000 1279.000
49.08000 1276.000
49.12000 1240.000
49.16000 1312.000
49.20000 1291.000
49.24000 1292.000
49.28000 1256.000
49.32000 1310.000
49.36000 1269.000
49.40000 1262.000
49.44000 1247.000
49.48000 1292.000
49.52000 1337.000
49.56000 1224.000
49.60000 1298.000
49.64000 1287.000
49.68000 1302.000
49.72000 1316.000
49.76000 1309.000
49.80000 1321.000
49.84000 1319.000
49.88000 1367.000
49.92000 1303.000
49.96000 1362.000
50.00000 1346.000
50.04000 1331.000
50.08000 1400.000
50.12000 1419.000
50.16000 1475.000
50.20000 1464.000
50.24000 1561.000
50.28000 1569.000
50.32000 1697.000
50.36000 1789.000
50.40000 1909.000
50.44000 1885.000
50.48000 2099.000
50.52000 2528.000
50.56000 3125.000
50.60000 4385.000
50.64000 5657.000
50.68000 7207.000
50.72000 8676.000
50.76000 10348.000
50.80000 11482.000
50.84000 11613.000
50.88000 11225.000
50.92000 10426.000
50.96000 9000.000
51.00000 7306.000
51.04000 5639.000
51.08000 4446.000
51.12000 3537.000
51.16000 2684.000
51.20000 2249.000
51.24000 1876.000
51.28000 1749.000
51.32000 1628.000
51.36000 1580.000
51.40000 1578.000
51.44000 1486.000
51.48000 1522.000
51.52000 1554.000
51.56000 1502.000
51.60000 1550.000
51.64000 1564.000
51.68000 1457.000
51.72000 1490.000
51.76000 1473.000
51.80000 1407.000
51.84000 1446.000
51.88000 1363.000
51.92000 1327.000
51.96000 1310.000
52.00000 1342.000
52.04000 1281.000
52.08000 1259.000
52.12000 1230.000
52.16000 1233.000
52.20000 1268.000
52.24000 1228.000
52.28000 1274.000
52.32000 1170.000
52.36000 1157.000
52.40000 1216.000
52.44000 1252.000
52.48000 1204.000
52.52000 1194.000
52.56000 1181.000
52.60000 1223.000
52.64000 1198.000
52.68000 1167.000
52.72000 1205.000
52.76000 1193.000
52.80000 1167.000
52.84000 1242.000
52.88000 1151.000
52.92000 1153.000
52.96000 1210.000
53.00000 1221.000
53.04000 1255.000
53.08000 1180.000
53.12000 1205.000
53.16000 1108.000
53.20000 1145.000
53.24000 1114.000
53.28000 1156.000
53.32000 1186.000
53.36000 1161.000
53.40000 1156.000
53.44000 1229.000
53.48000 1216.000
53.52000 1213.000
53.56000 1123.000
53.60000 1193.000
53.64000 1141.000
53.68000 1152.000
53.72000 1131.000
53.76000 1210.000
53.80000 1213.000
53.84000 1144.000
53.88000 1210.000
53.92000 1206.000
53.96000 1174.000
54.00000 1153.000
54.04000 1182.000
54.08000 1200.000
54.12000 1199.000
54.16000 1140.000
54.20000 1174.000
54.24000 1129.000
54.28000 1231.000
54.32000 1130.000
54.36000 1151.000
54.40000 1190.000
54.44000 1195.000
54.48000 1183.000
54.52000 1165.000
54.56000 1152.000
54.60000 1118.000
54.64000 1175.000
54.68000 1097.000
54.72000 1114.000
54.76000 1112.000
54.80000 1136.000
54.84000 1193.000
54.88000 1124.000
54.92000 1112.000
54.96000 1216.000
55.00000 1169.000
55.04000 1167.000
55.08000 1147.000
55.12000 1190.000
55.16000 1114.000
55.20000 1124.000
55.24000 1101.000
55.28000 1117.000
55.32000 1230.000
55.36000 1125.000
55.40000 1177.000
55.44000 1141.000
55.48000 1193.000
55.52000 1216.000
55.56000 1195.000
55.60000 1133.000
55.64000 1182.000
55.68000 1158.000
55.72000 1165.000
55.76000 1172.000
55.80000 1182.000
55.84000 1200.000
55.88000 1154.000
55.92000 1138.000
55.96000 1203.000
56.00000 1121.000
56.04000 1236.000
56.08000 1099.000
56.12000 1178.000
56.16000 1190.000
56.20000 1163.000
56.24000 1126.000
56.28000 1101.000
56.32000 1130.000
56.36000 1157.000
56.40000 1183.000
56.44000 1170.000
56.48000 1160.000
56.52000 1108.000
56.56000 1174.000
56.60000 1144.000
56.64000 1135.000
56.68000 1182.000
56.72000 1139.000
56.76000 1153.000
56.80000 1182.000
56.84000 1190.000
56.88000 1118.000
56.92000 1110.000
56.96000 1106.000
57.00000 1152.000
57.04000 1194.000
57.08000 1113.000
57.12000 1181.000
57.16000 1208.000
57.20000 1192.000
57.24000 1142.000
57.28000 1191.000
57.32000 1196.000
57.36000 1206.000
57.40000 1083.000
57.44000 1122.000
57.48000 1111.000
57.52000 1171.000
57.56000 1132.000
57.60000 1147.000
57.64000 1095.000
57.68000 1149.000
57.72000 1093.000
57.76000 1141.000
57.80000 1157.000
57.84000 1171.000
57.88000 1089.000
57.92000 1155.000
57.96000 1060.000
58.00000 1156.000
58.04000 1102.000
58.08000 1198.000
58.12000 1145.000
58.16000 1107.000
58.20000 1086.000
58.24000 1153.000
58.28000 1181.000
58.32000 1147.000
58.36000 1108.000
58.40000 1191.000
58.44000 1130.000
58.48000 1142.000
58.52000 1159.000
58.56000 1216.000
58.60000 1143.000
58.64000 1135.000
58.68000 1175.000
58.72000 1113.000
58.76000 1107.000
58.80000 1158.000
58.84000 1162.000
58.88000 1119.000
58.92000 1156.000
58.96000 1171.000
59.00000 1113.000
59.04000 1144.000
59.08000 1174.000
59.12000 1126.000
59.16000 1143.000
59.20000 1114.000
59.24000 1110.000
59.28000 1169.000
59.32000 1128.000
59.36000 1059.000
59.40000 1179.000
59.44000 1112.000
59.48000 1114.000
59.52000 1133.000
59.56000 1176.000
59.60000 1130.000
59.64000 1117.000
59.68000 1099.000
59.72000 1135.000
59.76000 1145.000
59.80000 1139.000
59.84000 1192.000
59.88000 1197.000
59.92000 1179.000
59.96000 1244.000
60.00000 1238.000
60.04000 1220.000
60.08000 1236.000
60.12000 1163.000
60.16000 1144.000
60.20000 1276.000
60.24000 1245.000
60.28000 1224.000
60.32000 1191.000
60.36000 1123.000
60.40000 1208.000
60.44000 1229.000
60.48000 1143.000
60.52000 1145.000
60.56000 1190.000
60.60000 1133.000
60.64000 1136.000
60.68000 1177.000
60.72000 1175.000
60.76000 1199.000
60.80000 1188.000
60.84000 1144.000
60.88000 1183.000
60.92000 1068.000
60.96000 1185.000
61.00000 1125.000
61.04000 1196.000
61.08000 1127.000
61.12000 1120.000
61.16000 1138.000
61.20000 1134.000
61.24000 1155.000
61.28000 1135.000
61.32000 1152.000
61.36000 1131.000
61.40000 1173.000
61.44000 1141.000
61.48000 1199.000
61.52000 1147.000
61.56000 1172.000
61.60000 1171.000
61.64000 1114.000
61.68000 1122.000
61.72000 1216.000
61.76000 1179.000
61.80000 1142.000
61.84000 1094.000
61.88000 1058.000
61.92000 1126.000
61.96000 1182.000
62.00000 1170.000
62.04000 1129.000
62.08000 1157.000
62.12000 1089.000
62.16000 1121.000
62.20000 1123.000
62.24000 1130.000
62.28000 1115.000
62.32000 1112.000
62.36000 1109.000
62.40000 1135.000
62.44000 1102.000
62.48000 1164.000
62.52000 1044.000
62.56000 1137.000
62.60000 1093.000
62.64000 1128.000
62.68000 1178.000
62.72000 1090.000
62.76000 1080.000
62.80000 1150.000
62.84000 1104.000
62.88000 1097.000
62.92000 1097.000
62.96000 1080.000
63.00000 1053.000
63.04000 1077.000
63.08000 1093.000
63.12000 1054.000
63.16000 1050.000
63.20000 1094.000
63.24000 1101.000
63.28000 1106.000
63.32000 1116.000
63.36000 1139.000
63.40000 1208.000
63.44000 1142.000
63.48000 1037.000
63.52000 1138.000
63.56000 1023.000
63.60000 1066.000
63.64000 1111.000
63.68000 1116.000
63.72000 1100.000
63.76000 1061.000
63.80000 1092.000
63.84000 1044.000
63.88000 1109.000
63.92000 1110.000
63.96000 1139.000
64.00000 1090.000
64.04000 1122.000
64.08000 1129.000
64.12000 1094.000
64.16000 1097.000
64.20000 1044.000
64.24000 1091.000
64.28000 1148.000
64.32000 1080.000
64.36000 1157.000
64.40000 1086.000
64.44000 1103.000
64.48000 1090.000
64.52000 1081.000
64.56000 1063.000
64.60000 1139.000
64.64000 1055.000
64.68000 1082.000
64.72000 1099.000
64.76000 1055.000
64.80000 1101.000
64.84000 1093.000
64.88000 1094.000
64.92000 1083.000
64.96000 1094.000
65.00000 1043.000
65.04000 1067.000
65.08000 1056.000
65.12000 1093.000
65.16000 1107.000
65.20000 1131.000
65.24000 1115.000
65.28000 1082.000
65.32000 1044.000
65.36000 1021.000
65.40000 993.000
65.44000 1076.000
65.48000 1029.000
65.52000 1103.000
65.56000 1061.000
65.60000 1095.000
65.64000 1068.000
65.68000 1106.000
65.72000 1066.000
65.76000 1089.000
65.80000 1079.000
65.84000 1049.000
65.88000 1077.000
65.92000 1069.000
65.96000 1118.000
66.00000 1040.000
66.04000 1038.000
66.08000 1069.000
66.12000 1089.000
66.16000 1051.000
66.20000 1063.000
66.24000 1071.000
66.28000 1128.000
66.32000 994.000
66.36000 1100.000
66.40000 1074.000
66.44000 1077.000
66.48000 1102.000
66.52000 1064.000
66.56000 1007.000
66.60000 1043.000
66.64000 1062.000
66.68000 1117.000
66.72000 995.000
66.76000 1025.000
66.80000 1103.000
66.84000 1027.000
66.88000 1100.000
66.92000 1021.000
66.96000 1062.000
67.00000 1003.000
67.04000 1043.000
67.08000 1000.000
67.12000 1032.000
67.16000 1055.000
67.20000 1011.000
67.24000 1025.000
67.28000 1037.000
67.32000 1035.000
67.36000 1065.000
67.40000 1066.000
67.44000 1088.000
67.48000 992.000
67.52000 1005.000
67.56000 1030.000
67.60000 1022.000
67.64000 946.000
67.68000 1076.000
67.72000 1057.000
67.76000 1022.000
67.80000 1068.000
67.84000 1046.000
67.88000 1019.000
67.92000 1056.000
67.96000 1017.000
68.00000 964.000
68.04000 1034.000
68.08000 1007.000
68.12000 1075.000
68.16000 1014.000
68.20000 1043.000
68.24000 1002.000
68.28000 1025.000
68.32000 977.000
68.36000 1076.000
68.40000 967.000
68.44000 967.000
68.48000 994.000
68.52000 965.000
68.56000 996.000
68.60000 964.000
68.64000 1002.000
68.68000 986.000
68.72000 1029.000
68.76000 977.000
68.80000 995.000
68.84000 917.000
68.88000 1008.000
68.92000 1008.000
68.96000 973.000
69.00000 1004.000
69.04000 1024.000
69.08000 974.000
69.12000 1048.000
69.16000 957.000
69.20000 913.000
69.24000 1011.000
69.28000 996.000
69.32000 975.000
69.36000 981.000
69.40000 1010.000
69.44000 970.000
69.48000 963.000
69.52000 928.000
69.56000 1019.000
69.60000 986.000
69.64000 939.000
69.68000 1011.000
69.72000 964.000
69.76000 963.000
69.80000 989.000
69.84000 991.000
69.88000 1019.000
69.92000 1015.000
