5.00000 4729.000
5.04000 4748.000
5.08000 4586.000
5.12000 4603.000
5.16000 4665.000
5.20000 4582.000
5.24000 4510.000
5.28000 4486.000
5.32000 4638.000
5.36000 4433.000
5.40000 4479.000
5.44000 4379.000
5.48000 4394.000
5.52000 4303.000
5.56000 4270.000
5.60000 4210.000
5.64000 4278.000
5.68000 4170.000
5.72000 4109.000
5.76000 4214.000
5.80000 4139.000
5.84000 3910.000
5.88000 3943.000
5.92000 3965.000
5.96000 3894.000
6.00000 3917.000
6.04000 3887.000
6.08000 3862.000
6.12000 3754.000
6.16000 3733.000
6.20000 3732.000
6.24000 3672.000
6.28000 3751.000
6.32000 3700.000
6.36000 3727.000
6.40000 3634.000
6.44000 3600.000
6.48000 3583.000
6.52000 3671.000
6.56000 3495.000
6.60000 3525.000
6.64000 3450.000
6.68000 3530.000
6.72000 3422.000
6.76000 3403.000
6.80000 3407.000
6.84000 3346.000
6.88000 3459.000
6.92000 3323.000
6.96000 3230.000
7.00000 3269.000
7.04000 3381.000
7.08000 3268.000
7.12000 3251.000
7.16000 3225.000
7.20000 3180.000
7.24000 3240.000
7.28000 3088.000
7.32000 3231.000
7.36000 3185.000
7.40000 3123.000
7.44000 3132.000
7.48000 3008.000
7.52000 3023.000
7.56000 3062.000
7.60000 3064.000
7.64000 3016.000
7.68000 3059.000
7.72000 3046.000
7.76000 2844.000
7.80000 2865.000
7.84000 2934.000
7.88000 2909.000
7.92000 2902.000
7.96000 2903.000
8.00000 2970.000
8.04000 2843.000
8.08000 2779.000
8.12000 2867.000
8.16000 2797.000
8.20000 2762.000
8.24000 2819.000
8.28000 2771.000
8.32000 2808.000
8.36000 2791.000
8.40000 2687.000
8.44000 2753.000
8.48000 2796.000
8.52000 2665.000
8.56000 2755.000
8.60000 2780.000
8.64000 2732.000
8.68000 2811.000
8.72000 2720.000
8.76000 2713.000
8.80000 2622.000
8.84000 2596.000
8.88000 2702.000
8.92000 2736.000
8.96000 2667.000
9.00000 2645.000
9.04000 2577.000
9.08000 2500.000
9.12000 2488.000
9.16000 2472.000
9.20000 2525.000
9.24000 2478.000
9.28000 2444.000
9.32000 2405.000
9.36000 2461.000
9.40000 2363.000
9.44000 2472.000
9.48000 2368.000
9.52000 2393.000
9.56000 2428.000
9.60000 2391.000
9.64000 2322.000
9.68000 2373.000
9.72000 2367.000
9.76000 2332.000
9.80000 2333.000
9.84000 2340.000
9.88000 2340.000
9.92000 2269.000
9.96000 2337.000
10.00000 2337.000
10.04000 2305.000
10.08000 2304.000
10.12000 2365.000
10.16000 2291.000
10.20000 2329.000
10.24000 2278.000
10.28000 2301.000
10.32000 2268.000
10.36000 2278.000
10.40000 2225.000
10.44000 2315.000
10.48000 2234.000
10.52000 2284.000
10.56000 2175.000
10.60000 2296.000
10.64000 2290.000
10.68000 2226.000
10.72000 2303.000
10.76000 2217.000
10.80000 2295.000
10.84000 2198.000
10.88000 2188.000
10.92000 2224.000
10.96000 2216.000
11.00000 2238.000
11.04000 2183.000
11.08000 2197.000
11.12000 2038.000
11.16000 2116.000
11.20000 2116.000
11.24000 2176.000
11.28000 2130.000
11.32000 2157.000
11.36000 2127.000
11.40000 2122.000
11.44000 2120.000
11.48000 2075.000
11.52000 2136.000
11.56000 2049.000
11.60000 2108.000
11.64000 2020.000
11.68000 2024.000
11.72000 2010.000
11.76000 2040.000
11.80000 2027.000
11.84000 2139.000
11.88000 2062.000
11.92000 2046.000
11.96000 2031.000
12.00000 2021.000
12.04000 2140.000
12.08000 2019.000
12.12000 2038.000
12.16000 2071.000
12.20000 2001.000
12.24000 1999.000
12.28000 2043.000
12.32000 2122.000
12.36000 2113.000
12.40000 2097.000
12.44000 2054.000
12.48000 2043.000
12.52000 2075.000
12.56000 2137.000
12.60000 2132.000
12.64000 2179.000
12.68000 2105.000
12.72000 2161.000
12.76000 2147.000
12.80000 2193.000
12.84000 2103.000
12.88000 2069.000
12.92000 2033.000
12.96000 2076.000
13.00000 2046.000
13.04000 2064.000
13.08000 2032.000
13.12000 2091.000
13.16000 2072.000
13.20000 2141.000
13.24000 2182.000
13.28000 2155.000
13.32000 2474.000
13.36000 2651.000
13.40000 2771.000
13.44000 2960.000
13.48000 2988.000
13.52000 3016.000
13.56000 3020.000
13.60000 2854.000
13.64000 2665.000
13.68000 2512.000
13.72000 2442.000
13.76000 2160.000
13.80000 2122.000
13.84000 2071.000
13.88000 2043.000
13.92000 1991.000
13.96000 2064.000
14.00000 2052.000
14.04000 2062.000
14.08000 1934.000
14.12000 2114.000
14.16000 2039.000
14.20000 2071.000
14.24000 1974.000
14.28000 2042.000
14.32000 1991.000
14.36000 1981.000
14.40000 2091.000
14.44000 2016.000
14.48000 2016.000
14.52000 2014.000
14.56000 2061.000
14.60000 2027.000
14.64000 2011.000
14.68000 1945.000
14.72000 2002.000
14.76000 1959.000
14.80000 2034.000
14.84000 2041.000
14.88000 2108.000
14.92000 2055.000
14.96000 2152.000
15.00000 2111.000
15.04000 2127.000
15.08000 2139.000
15.12000 2077.000
15.16000 2203.000
15.20000 2251.000
15.24000 2312.000
15.28000 2522.000
15.32000 2684.000
15.36000 3003.000
15.40000 3407.000
15.44000 4017.000
15.48000 4681.000
15.52000 5436.000
15.56000 5954.000
15.60000 6076.000
15.64000 6346.000
15.68000 5998.000
15.72000 5440.000
15.76000 4627.000
15.80000 4038.000
15.84000 3329.000
15.88000 2843.000
15.92000 2355.000
15.96000 2154.000
16.00000 2104.000
16.04000 2203.000
16.08000 2016.000
16.12000 2091.000
16.16000 2103.000
16.20000 2043.000
16.24000 2049.000
16.28000 2036.000
16.32000 2082.000
16.36000 2096.000
16.40000 2182.000
16.44000 2052.000
16.48000 2096.000
16.52000 2092.000
16.56000 2040.000
16.60000 2111.000
16.64000 2144.000
16.68000 2170.000
16.72000 2067.000
16.76000 2146.000
16.80000 2105.000
16.84000 2048.000
16.88000 2159.000
16.92000 2141.000
16.96000 2187.000
17.00000 2157.000
17.04000 2174.000
17.08000 2171.000
17.12000 2234.000
17.16000 2168.000
17.20000 2178.000
17.24000 2179.000
17.28000 2281.000
17.32000 2198.000
17.36000 2239.000
17.40000 2242.000
17.44000 2107.000
17.48000 2234.000
17.52000 2279.000
17.56000 2157.000
17.60000 2293.000
17.64000 2258.000
17.68000 2417.000
17.72000 2265.000
17.76000 2377.000
17.80000 2410.000
17.84000 2389.000
17.88000 2533.000
17.92000 2512.000
17.96000 2530.000
18.00000 2577.000
18.04000 2497.000
18.08000 2486.000
18.12000 2380.000
18.16000 2437.000
18.20000 2378.000
18.24000 2336.000
18.28000 2398.000
18.32000 2383.000
18.36000 2387.000
18.40000 2369.000
18.44000 2364.000
18.48000 2398.000
18.52000 2483.000
18.56000 2548.000
18.60000 2413.000
18.64000 2412.000
18.68000 2444.000
18.72000 2412.000
18.76000 2451.000
18.80000 2351.000
18.84000 2481.000
18.88000 2531.000
18.92000 2440.000
18.96000 2502.000
19.00000 2560.000
19.04000 2552.000
19.08000 2495.000
19.12000 2502.000
19.16000 2544.000
19.20000 2610.000
19.24000 2540.000
19.28000 2564.000
19.32000 2546.000
19.36000 2566.000
19.40000 2578.000
19.44000 2624.000
19.48000 2633.000
19.52000 2527.000
19.56000 2551.000
19.60000 2690.000
19.64000 2661.000
19.68000 2671.000
19.72000 2578.000
19.76000 2658.000
19.80000 2727.000
19.84000 2631.000
19.88000 2703.000
19.92000 2746.000
19.96000 2779.000
20.00000 2697.000
20.04000 2782.000
20.08000 2755.000
20.12000 2674.000
20.16000 2723.000
20.20000 2779.000
20.24000 2803.000
20.28000 2819.000
20.32000 2781.000
20.36000 2897.000
20.40000 2874.000
20.44000 2785.000
20.48000 2818.000
20.52000 2789.000
20.56000 2766.000
20.60000 2869.000
20.64000 2876.000
20.68000 2922.000
20.72000 2841.000
20.76000 2842.000
20.80000 2882.000
20.84000 2789.000
20.88000 2929.000
20.92000 2960.000
20.96000 2874.000
21.00000 2976.000
21.04000 2948.000
21.08000 2955.000
21.12000 2957.000
21.16000 2936.000
21.20000 2962.000
21.24000 3061.000
21.28000 3024.000
21.32000 2952.000
21.36000 2981.000
21.40000 3092.000
21.44000 3056.000
21.48000 3027.000
21.52000 3051.000
21.56000 3178.000
21.60000 3162.000
21.64000 3070.000
21.68000 3156.000
21.72000 3158.000
21.76000 3180.000
21.80000 3438.000
21.84000 3575.000
21.88000 3658.000
21.92000 4027.000
21.96000 4726.000
22.00000 5490.000
22.04000 6558.000
22.08000 7528.000
22.12000 8626.000
22.16000 9373.000
22.20000 9774.000
22.24000 9510.000
22.28000 8854.000
22.32000 7850.000
22.36000 6931.000
22.40000 5940.000
22.44000 4920.000
22.48000 3916.000
22.52000 3481.000
22.56000 3415.000
22.60000 3363.000
22.64000 3225.000
22.68000 3190.000
22.72000 3111.000
22.76000 3260.000
22.80000 3242.000
22.84000 3181.000
22.88000 3144.000
22.92000 3158.000
22.96000 3179.000
23.00000 3265.000
23.04000 3232.000
23.08000 3209.000
23.12000 3202.000
23.16000 3132.000
23.20000 3189.000
23.24000 3170.000
23.28000 3216.000
23.32000 3283.000
23.36000 3244.000
23.40000 3163.000
23.44000 3173.000
23.48000 3262.000
23.52000 3173.000
23.56000 3368.000
23.60000 3333.000
23.64000 3234.000
23.68000 3251.000
23.72000 3209.000
23.76000 3238.000
23.80000 3217.000
23.84000 3318.000
23.88000 3222.000
23.92000 3195.000
23.96000 3317.000
24.00000 3246.000
24.04000 3315.000
24.08000 3352.000
24.12000 3338.000
24.16000 3291.000
24.20000 3353.000
24.24000 2933.000
24.28000 3178.000
24.32000 3200.000
24.36000 3194.000
24.40000 3302.000
24.44000 3182.000
24.48000 3184.000
24.52000 3165.000
24.56000 3153.000
24.60000 3213.000
24.64000 3136.000
24.68000 3201.000
24.72000 3163.000
24.76000 3110.000
24.80000 3008.000
24.84000 3160.000
24.88000 3061.000
24.92000 3162.000
24.96000 3157.000
25.00000 3259.000
25.04000 3175.000
25.08000 3199.000
25.12000 3160.000
25.16000 3161.000
25.20000 3099.000
25.24000 3141.000
25.28000 3225.000
25.32000 2993.000
25.36000 3090.000
25.40000 3238.000
25.44000 3070.000
25.48000 3113.000
25.52000 3170.000
25.56000 3161.000
25.60000 3189.000
25.64000 3151.000
25.68000 3143.000
25.72000 3079.000
25.76000 3046.000
25.80000 3113.000
25.84000 3168.000
25.88000 3268.000
25.92000 3204.000
25.96000 3304.000
26.00000 3436.000
26.04000 3739.000
26.08000 3912.000
26.12000 3984.000
26.16000 4015.000
26.20000 4118.000
26.24000 3972.000
26.28000 3654.000
26.32000 3564.000
26.36000 3413.000
26.40000 3230.000
26.44000 3219.000
26.48000 3122.000
26.52000 3194.000
26.56000 3195.000
26.60000 3086.000
26.64000 3000.000
26.68000 2980.000
26.72000 3116.000
26.76000 3050.000
26.80000 3149.000
26.84000 3204.000
26.88000 3280.000
26.92000 3544.000
26.96000 3479.000
27.00000 3964.000
27.04000 4471.000
27.08000 5175.000
27.12000 6185.000
27.16000 7509.000
27.20000 8463.000
27.24000 9827.000
27.28000 10368.000
27.32000 10704.000
27.36000 9947.000
27.40000 9256.000
27.44000 8339.000
27.48000 7038.000
27.52000 6055.000
27.56000 4791.000
27.60000 4002.000
27.64000 3500.000
27.68000 3312.000
27.72000 3103.000
27.76000 3045.000
27.80000 2999.000
27.84000 2915.000
27.88000 2887.000
27.92000 2902.000
27.96000 2752.000
28.00000 2912.000
28.04000 2856.000
28.08000 2865.000
28.12000 2821.000
28.16000 2906.000
28.20000 2853.000
28.24000 2878.000
28.28000 2857.000
28.32000 2882.000
28.36000 2915.000
28.40000 2906.000
28.44000 2930.000
28.48000 2951.000
28.52000 2841.000
28.56000 2883.000
28.60000 2825.000
28.64000 2905.000
28.68000 2862.000
28.72000 2804.000
28.76000 2881.000
28.80000 2912.000
28.84000 2837.000
28.88000 2769.000
28.92000 2811.000
28.96000 2741.000
29.00000 2696.000
29.04000 2691.000
29.08000 2734.000
29.12000 2726.000
29.16000 2810.000
29.20000 2663.000
29.24000 2676.000
29.28000 2710.000
29.32000 2775.000
29.36000 2909.000
29.40000 3059.000
29.44000 3148.000
29.48000 3247.000
29.52000 3299.000
29.56000 3375.000
29.60000 3301.000
29.64000 3370.000
29.68000 3129.000
29.72000 3045.000
29.76000 2866.000
29.80000 2839.000
29.84000 2759.000
29.88000 2710.000
29.92000 2694.000
29.96000 2663.000
30.00000 2678.000
30.04000 2736.000
30.08000 2645.000
30.12000 2567.000
30.16000 2663.000
30.20000 2659.000
30.24000 2703.000
30.28000 2582.000
30.32000 2607.000
30.36000 2676.000
30.40000 2593.000
30.44000 2733.000
30.48000 2646.000
30.52000 2674.000
30.56000 2694.000
30.60000 2682.000
30.64000 2731.000
30.68000 2756.000
30.72000 2737.000
30.76000 2905.000
30.80000 2900.000
30.84000 2921.000
30.88000 2891.000
30.92000 2804.000
30.96000 2798.000
31.00000 2784.000
31.04000 2796.000
31.08000 2756.000
31.12000 2866.000
31.16000 2973.000
31.20000 3040.000
31.24000 3212.000
31.28000 3216.000
31.32000 3432.000
31.36000 4102.000
31.40000 4988.000
31.44000 6132.000
31.48000 7946.000
31.52000 9944.000
31.56000 12084.000
31.60000 13890.000
31.64000 14757.000
31.68000 15088.000
31.72000 14347.000
31.76000 13213.000
31.80000 11055.000
31.84000 9100.000
31.88000 6910.000
31.92000 5173.000
31.96000 3884.000
32.00000 3164.000
32.04000 2812.000
32.08000 2422.000
32.12000 2436.000
32.16000 2508.000
32.20000 2375.000
32.24000 2388.000
32.28000 2407.000
32.32000 2301.000
32.36000 2261.000
32.40000 2371.000
32.44000 2366.000
32.48000 2318.000
32.52000 2310.000
32.56000 2254.000
32.60000 2255.000
32.64000 2207.000
32.68000 2231.000
32.72000 2261.000
32.76000 2209.000
32.80000 2290.000
32.84000 2151.000
32.88000 2194.000
32.92000 2269.000
32.96000 2267.000
33.00000 2146.000
33.04000 2144.000
33.08000 2280.000
33.12000 2211.000
33.16000 2237.000
33.20000 2165.000
33.24000 2163.000
33.28000 2115.000
33.32000 2087.000
33.36000 2188.000
33.40000 2169.000
33.44000 2126.000
33.48000 2111.000
33.52000 2187.000
33.56000 2133.000
33.60000 2133.000
33.64000 2218.000
33.68000 2275.000
33.72000 2282.000
33.76000 2268.000
33.80000 2320.000
33.84000 2414.000
33.88000 2331.000
33.92000 2417.000
33.96000 2424.000
34.00000 2372.000
34.04000 2446.000
34.08000 2346.000
34.12000 2321.000
34.16000 2160.000
34.20000 2154.000
34.24000 2122.000
34.28000 2063.000
34.32000 2054.000
34.36000 1927.000
34.40000 1982.000
34.44000 1935.000
34.48000 1881.000
34.52000 2001.000
34.56000 1946.000
34.60000 1956.000
34.64000 1909.000
34.68000 1968.000
34.72000 1884.000
34.76000 1935.000
34.80000 1865.000
34.84000 1927.000
34.88000 1858.000
34.92000 1841.000
34.96000 1827.000
35.00000 1780.000
35.04000 1873.000
35.08000 1794.000
35.12000 1776.000
35.16000 1821.000
35.20000 1838.000
35.24000 1853.000
35.28000 1880.000
35.32000 1880.000
35.36000 1967.000
35.40000 2101.000
35.44000 2125.000
35.48000 2138.000
35.52000 2208.000
35.56000 2135.000
35.60000 2233.000
35.64000 2117.000
35.68000 1959.000
35.72000 1893.000
35.76000 1808.000
35.80000 1806.000
35.84000 1704.000
35.88000 1641.000
35.92000 1723.000
35.96000 1636.000
36.00000 1727.000
36.04000 1650.000
36.08000 1676.000
36.12000 1628.000
36.16000 1578.000
36.20000 1657.000
36.24000 1585.000
36.28000 1597.000
36.32000 1582.000
36.36000 1602.000
36.40000 1633.000
36.44000 1580.000
36.48000 1647.000
36.52000 1548.000
36.56000 1555.000
36.60000 1534.000
36.64000 1555.000
36.68000 1543.000
36.72000 1533.000
36.76000 1547.000
36.80000 1539.000
36.84000 1563.000
36.88000 1518.000
36.92000 1554.000
36.96000 1492.000
37.00000 1588.000
37.04000 1447.000
37.08000 1563.000
37.12000 1547.000
37.16000 1525.000
37.20000 1507.000
37.24000 1476.000
37.28000 1478.000
37.32000 1526.000
37.36000 1474.000
37.40000 1475.000
37.44000 1495.000
37.48000 1491.000
37.52000 1504.000
37.56000 1546.000
37.60000 1468.000
37.64000 1482.000
37.68000 1437.000
37.72000 1507.000
37.76000 1480.000
37.80000 1479.000
37.84000 1446.000
37.88000 1545.000
37.92000 1459.000
37.96000 1521.000
38.00000 1361.000
38.04000 1346.000
38.08000 1416.000
38.12000 1413.000
38.16000 1433.000
38.20000 1436.000
38.24000 1372.000
38.28000 1329.000
38.32000 1425.000
38.36000 1383.000
38.40000 1443.000
38.44000 1457.000
38.48000 1419.000
38.52000 1425.000
38.56000 1411.000
38.60000 1467.000
38.64000 1433.000
38.68000 1429.000
38.72000 1480.000
38.76000 1586.000
38.80000 1580.000
38.84000 1723.000
38.88000 1920.000
38.92000 2150.000
38.96000 2318.000
39.00000 2407.000
39.04000 2495.000
39.08000 2385.000
39.12000 2271.000
39.16000 2207.000
39.20000 2092.000
39.24000 1889.000
39.28000 1672.000
39.32000 1591.000
39.36000 1490.000
39.40000 1458.000
39.44000 1396.000
39.48000 1361.000
39.52000 1421.000
39.56000 1361.000
39.60000 1390.000
39.64000 1370.000
39.68000 1395.000
39.72000 1303.000
39.76000 1346.000
39.80000 1335.000
39.84000 1340.000
39.88000 1345.000
39.92000 1336.000
39.96000 1375.000
40.00000 1353.000
40.04000 1382.000
40.08000 1333.000
40.12000 1381.000
40.16000 1323.000
40.20000 1344.000
40.24000 1449.000
40.28000 1341.000
40.32000 1343.000
40.36000 1318.000
40.40000 1348.000
40.44000 1410.000
40.48000 1383.000
40.52000 1306.000
40.56000 1356.000
40.60000 1330.000
40.64000 1385.000
40.68000 1371.000
40.72000 1396.000
40.76000 1291.000
40.80000 1294.000
40.84000 1359.000
40.88000 1314.000
40.92000 1382.000
40.96000 1333.000
41.00000 1403.000
41.04000 1321.000
41.08000 1304.000
41.12000 1344.000
41.16000 1386.000
41.20000 1322.000
41.24000 1408.000
41.28000 1425.000
41.32000 1424.000
41.36000 1437.000
41.40000 1461.000
41.44000 1517.000
41.48000 1543.000
41.52000 1631.000
41.56000 1551.000
41.60000 1583.000
41.64000 1528.000
41.68000 1578.000
41.72000 1523.000
41.76000 1462.000
41.80000 1393.000
41.84000 1368.000
41.88000 1387.000
41.92000 1394.000
41.96000 1350.000
42.00000 1312.000
42.04000 1273.000
42.08000 1326.000
42.12000 1341.000
42.16000 1283.000
42.20000 1325.000
42.24000 1324.000
42.28000 1435.000
42.32000 1287.000
42.36000 1340.000
42.40000 1279.000
42.44000 1330.000
42.48000 1320.000
42.52000 1338.000
42.56000 1317.000
42.60000 1240.000
42.64000 1334.000
42.68000 1292.000
42.72000 1326.000
42.76000 1310.000
42.80000 1332.000
42.84000 1397.000
42.88000 1298.000
42.92000 1290.000
42.96000 1297.000
43.00000 1355.000
43.04000 1178.000
43.08000 1249.000
43.12000 1310.000
43.16000 1383.000
43.20000 1420.000
43.24000 1341.000
43.28000 1422.000
43.32000 1315.000
43.36000 1411.000
43.40000 1334.000
43.44000 1331.000
43.48000 1316.000
43.52000 1304.000
43.56000 1315.000
43.60000 1343.000
43.64000 1297.000
43.68000 1359.000
43.72000 1333.000
43.76000 1364.000
43.80000 1305.000
43.84000 1380.000
43.88000 1327.000
43.92000 1310.000
43.96000 1284.000
44.00000 1288.000
44.04000 1329.000
44.08000 1345.000
44.12000 1429.000
44.16000 1353.000
44.20000 1376.000
44.24000 1400.000
44.28000 1411.000
44.32000 1421.000
44.36000 1482.000
44.40000 1425.000
44.44000 1378.000
44.48000 1422.000
44.52000 1404.000
44.56000 1440.000
44.60000 1406.000
44.64000 1350.000
44.68000 1366.000
44.72000 1316.000
44.76000 1321.000
44.80000 1357.000
44.84000 1428.000
44.88000 1391.000
44.92000 1407.000
44.96000 1462.000
45.00000 1464.000
45.04000 1573.000
45.08000 1685.000
45.12000 1750.000
45.16000 1984.000
45.20000 2227.000
45.24000 2553.000
45.28000 2882.000
45.32000 3347.000
45.36000 3628.000
45.40000 3838.000
45.44000 4025.000
45.48000 3947.000
45.52000 3653.000
45.56000 3350.000
45.60000 3065.000
45.64000 2557.000
45.68000 2167.000
45.72000 1937.000
45.76000 1616.000
45.80000 1497.000
45.84000 1316.000
45.88000 1352.000
45.92000 1371.000
45.96000 1310.000
46.00000 1287.000
46.04000 1303.000
46.08000 1297.000
46.12000 1281.000
46.16000 1312.000
46.20000 1340.000
46.24000 1350.000
46.28000 1221.000
46.32000 1255.000
46.36000 1226.000
46.40000 1273.000
46.44000 1202.000
46.48000 1211.000
46.52000 1276.000
46.56000 1281.000
46.60000 1218.000
46.64000 1264.000
46.68000 1273.000
46.72000 1267.000
46.76000 1264.000
46.80000 1248.000
46.84000 1223.000
46.88000 1204.000
46.92000 1192.000
46.96000 1218.000
47.00000 1196.000
47.04000 1228.000
47.08000 1274.000
47.12000 1213.000
47.16000 1267.000
47.20000 1236.000
47.24000 1181.000
47.28000 1197.000
47.32000 1226.000
47.36000 1219.000
47.40000 1187.000
47.44000 1208.000
47.48000 1297.000
47.52000 1189.000
47.56000 1255.000
47.60000 1241.000
47.64000 1248.000
47.68000 1133.000
47.72000 1180.000
47.76000 1263.000
47.80000 1283.000
47.84000 1279.000
47.88000 1181.000
47.92000 1205.000
47.96000 1164.000
48.00000 1199.000
48.04000 1192.000
48.08000 1222.000
48.12000 1198.000
48.16000 1193.000
48.20000 1347.000
48.24000 1326.000
48.28000 1361.000
48.32000 1393.000
48.36000 1412.000
48.40000 1455.000
48.44000 1422.000
48.48000 1359.000
48.52000 1268.000
48.56000 1356.000
48.60000 1229.000
48.64000 1162.000
48.68000 1235.000
48.72000 1167.000
48.76000 1222.000
48.80000 1145.000
48.84000 1212.000
48.88000 1168.000
48.92000 1111.000
48.96000 1167.000
49.00000 1170.000
49.04000 1178.000
49.08000 1144.000
49.12000 1199.000
49.16000 1146.000
49.20000 1141.000
49.24000 1140.000
49.28000 1117.000
49.32000 1185.000
49.36000 1179.000
49.40000 1179.000
49.44000 1155.000
49.48000 1115.000
49.52000 1117.000
49.56000 1135.000
49.60000 1145.000
49.64000 1202.000
49.68000 1141.000
49.72000 1176.000
49.76000 1118.000
49.80000 1124.000
49.84000 1143.000
49.88000 1110.000
49.92000 1162.000
49.96000 1142.000
50.00000 1091.000
50.04000 1141.000
50.08000 1146.000
50.12000 1092.000
50.16000 1169.000
50.20000 1206.000
50.24000 1168.000
50.28000 1139.000
50.32000 1128.000
50.36000 1200.000
50.40000 1145.000
50.44000 1156.000
50.48000 1121.000
50.52000 1126.000
50.56000 1182.000
50.60000 1152.000
50.64000 1179.000
50.68000 1139.000
50.72000 1121.000
50.76000 1185.000
50.80000 1179.000
50.84000 1156.000
50.88000 1180.000
50.92000 1311.000
50.96000 1317.000
51.00000 1367.000
51.04000 1537.000
51.08000 1487.000
51.12000 1535.000
51.16000 1576.000
51.20000 1494.000
51.24000 1545.000
51.28000 1477.000
51.32000 1388.000
51.36000 1354.000
51.40000 1317.000
51.44000 1230.000
51.48000 1165.000
51.52000 1139.000
51.56000 1157.000
51.60000 1110.000
51.64000 1139.000
51.68000 1138.000
51.72000 1097.000
51.76000 1172.000
51.80000 1139.000
51.84000 1124.000
51.88000 1134.000
51.92000 1119.000
51.96000 1156.000
52.00000 1100.000
52.04000 1154.000
52.08000 1157.000
52.12000 1074.000
52.16000 1130.000
52.20000 1190.000
52.24000 1198.000
52.28000 1106.000
52.32000 1121.000
52.36000 1077.000
52.40000 1107.000
52.44000 1086.000
52.48000 1140.000
52.52000 1159.000
52.56000 1139.000
52.60000 1088.000
52.64000 1067.000
52.68000 1121.000
52.72000 1096.000
52.76000 1123.000
52.80000 1183.000
52.84000 1153.000
52.88000 1133.000
52.92000 1095.000
52.96000 1129.000
53.00000 1126.000
53.04000 1098.000
53.08000 1113.000
53.12000 1109.000
53.16000 1134.000
53.20000 1141.000
53.24000 1135.000
53.28000 1129.000
53.32000 1103.000
53.36000 1133.000
53.40000 1159.000
53.44000 1142.000
53.48000 1149.000
53.52000 1138.000
53.56000 1110.000
53.60000 1235.000
53.64000 1175.000
53.68000 1180.000
53.72000 1265.000
53.76000 1250.000
53.80000 1308.000
53.84000 1252.000
53.88000 1319.000
53.92000 1327.000
53.96000 1262.000
54.00000 1219.000
54.04000 1250.000
54.08000 1154.000
54.12000 1219.000
54.16000 1123.000
54.20000 1161.000
54.24000 1153.000
54.28000 1053.000
54.32000 1113.000
54.36000 1099.000
54.40000 1149.000
54.44000 1091.000
54.48000 1094.000
54.52000 1113.000
54.56000 1130.000
54.60000 1106.000
54.64000 1164.000
54.68000 1129.000
54.72000 1125.000
54.76000 1089.000
54.80000 1093.000
54.84000 1123.000
54.88000 1196.000
54.92000 1115.000
54.96000 1148.000
55.00000 1170.000
55.04000 1087.000
55.08000 1089.000
55.12000 1151.000
55.16000 1100.000
55.20000 1123.000
55.24000 1151.000
55.28000 1095.000
55.32000 1153.000
55.36000 1075.000
55.40000 1155.000
55.44000 1112.000
55.48000 1189.000
55.52000 1136.000
55.56000 1138.000
55.60000 1119.000
55.64000 1099.000
55.68000 1183.000
55.72000 1177.000
55.76000 1189.000
55.80000 1205.000
55.84000 1267.000
55.88000 1195.000
55.92000 1330.000
55.96000 1275.000
56.00000 1286.000
56.04000 1245.000
56.08000 1363.000
56.12000 1348.000
56.16000 1479.000
56.20000 1536.000
56.24000 1809.000
56.28000 2008.000
56.32000 2244.000
56.36000 2440.000
56.40000 2556.000
56.44000 2785.000
56.48000 2911.000
56.52000 2898.000
56.56000 2643.000
56.60000 2483.000
56.64000 2383.000
56.68000 2076.000
56.72000 1745.000
56.76000 1633.000
56.80000 1459.000
56.84000 1393.000
56.88000 1299.000
56.92000 1268.000
56.96000 1114.000
57.00000 1153.000
57.04000 1150.000
57.08000 1130.000
57.12000 1103.000
57.16000 1132.000
57.20000 1131.000
57.24000 1111.000
57.28000 1125.000
57.32000 1236.000
57.36000 1208.000
57.40000 1097.000
57.44000 1125.000
57.48000 1152.000
57.52000 1079.000
57.56000 1136.000
57.60000 1136.000
57.64000 1118.000
57.68000 1090.000
57.72000 1127.000
57.76000 1146.000
57.80000 1125.000
57.84000 1074.000
57.88000 1131.000
57.92000 1123.000
57.96000 1135.000
58.00000 1085.000
58.04000 1148.000
58.08000 1074.000
58.12000 1096.000
58.16000 1112.000
58.20000 1136.000
58.24000 1119.000
58.28000 1148.000
58.32000 1170.000
58.36000 1191.000
58.40000 1166.000
58.44000 1112.000
58.48000 1169.000
58.52000 1152.000
58.56000 1187.000
58.60000 1147.000
58.64000 1099.000
58.68000 1240.000
58.72000 1140.000
58.76000 1088.000
58.80000 1202.000
58.84000 1121.000
58.88000 1197.000
58.92000 1217.000
58.96000 1141.000
59.00000 1156.000
59.04000 1199.000
59.08000 1175.000
59.12000 1132.000
59.16000 1132.000
59.20000 1175.000
59.24000 1181.000
59.28000 1144.000
59.32000 1096.000
59.36000 1112.000
59.40000 1170.000
59.44000 1109.000
59.48000 1156.000
59.52000 1083.000
59.56000 1116.000
59.60000 1069.000
59.64000 1163.000
59.68000 1095.000
59.72000 1071.000
59.76000 1088.000
59.80000 1097.000
59.84000 1138.000
59.88000 1059.000
59.92000 1086.000
59.96000 1117.000
60.00000 1094.000
60.04000 1108.000
60.08000 1093.000
60.12000 1111.000
60.16000 1113.000
60.20000 1118.000
60.24000 1125.000
60.28000 1097.000
60.32000 1122.000
60.36000 1125.000
60.40000 1107.000
60.44000 1111.000
60.48000 1112.000
60.52000 1129.000
60.56000 1113.000
60.60000 1090.000
60.64000 1095.000
60.68000 1055.000
60.72000 1153.000
60.76000 1041.000
60.80000 1075.000
60.84000 1098.000
60.88000 1134.000
60.92000 1083.000
60.96000 1153.000
61.00000 1129.000
61.04000 1148.000
61.08000 1151.000
61.12000 1112.000
61.16000 1180.000
61.20000 1189.000
61.24000 1167.000
61.28000 1248.000
61.32000 1243.000
61.36000 1317.000
61.40000 1302.000
61.44000 1332.000
61.48000 1299.000
61.52000 1303.000
61.56000 1307.000
61.60000 1289.000
61.64000 1222.000
61.68000 1263.000
61.72000 1231.000
61.76000 1136.000
61.80000 1181.000
61.84000 1032.000
61.88000 1095.000
61.92000 1109.000
61.96000 1098.000
62.00000 1129.000
62.04000 1150.000
62.08000 1051.000
62.12000 1055.000
62.16000 1097.000
62.20000 1056.000
62.24000 1128.000
62.28000 1048.000
62.32000 1130.000
62.36000 1055.000
62.40000 1070.000
62.44000 1090.000
62.48000 1059.000
62.52000 1106.000
62.56000 1147.000
62.60000 1118.000
62.64000 1097.000
62.68000 1111.000
62.72000 1063.000
62.76000 1112.000
62.80000 1148.000
62.84000 1089.000
62.88000 1103.000
62.92000 1079.000
62.96000 1098.000
63.00000 1084.000
63.04000 1150.000
63.08000 1077.000
63.12000 1042.000
63.16000 1087.000
63.20000 1105.000
63.24000 1125.000
63.28000 1077.000
63.32000 1150.000
63.36000 1086.000
63.40000 1043.000
63.44000 1075.000
63.48000 1059.000
63.52000 1073.000
63.56000 1082.000
63.60000 1073.000
63.64000 1128.000
63.68000 1113.000
63.72000 1016.000
63.76000 1065.000
63.80000 1104.000
63.84000 1080.000
63.88000 1082.000
63.92000 1117.000
63.96000 1060.000
64.00000 1059.000
64.04000 1065.000
64.08000 982.000
64.12000 1088.000
64.16000 1103.000
64.20000 1063.000
64.24000 1066.000
64.28000 1046.000
64.32000 1087.000
64.36000 1067.000
64.40000 1024.000
64.44000 1076.000
64.48000 1045.000
64.52000 1065.000
64.56000 1059.000
64.60000 1133.000
64.64000 1054.000
64.68000 1057.000
64.72000 1089.000
64.76000 1027.000
64.80000 1036.000
64.84000 1091.000
64.88000 1071.000
64.92000 985.000
64.96000 1051.000
65.00000 1071.000
65.04000 1090.000
65.08000 1055.000
65.12000 1077.000
65.16000 1027.000
65.20000 1061.000
65.24000 1047.000
65.28000 1001.000
65.32000 1068.000
65.36000 1035.000
65.40000 1009.000
65.44000 1058.000
65.48000 1106.000
65.52000 1049.000
65.56000 1030.000
65.60000 1059.000
65.64000 1084.000
65.68000 1018.000
65.72000 1078.000
65.76000 1095.000
65.80000 1052.000
65.84000 1118.000
65.88000 1091.000
65.92000 1141.000
65.96000 1105.000
66.00000 1115.000
66.04000 1244.000
66.08000 1270.000
66.12000 1352.000
66.16000 1405.000
66.20000 1436.000
66.24000 1542.000
66.28000 1489.000
66.32000 1435.000
66.36000 1453.000
66.40000 1352.000
66.44000 1329.000
66.48000 1293.000
66.52000 1235.000
66.56000 1242.000
66.60000 1120.000
66.64000 1074.000
66.68000 1087.000
66.72000 1066.000
66.76000 1028.000
66.80000 1056.000
66.84000 1009.000
66.88000 1058.000
66.92000 1062.000
66.96000 1057.000
67.00000 982.000
67.04000 980.000
67.08000 1091.000
67.12000 1052.000
67.16000 1009.000
67.20000 1006.000
67.24000 1008.000
67.28000 1002.000
67.32000 1013.000
67.36000 1028.000
67.40000 1049.000
67.44000 989.000
67.48000 1026.000
67.52000 1008.000
67.56000 1009.000
67.60000 993.000
67.64000 963.000
67.68000 997.000
67.72000 986.000
67.76000 1046.000
67.80000 1019.000
67.84000 984.000
67.88000 1019.000
67.92000 980.000
67.96000 960.000
68.00000 1009.000
68.04000 990.000
68.08000 956.000
68.12000 1051.000
68.16000 1074.000
68.20000 1014.000
68.24000 994.000
68.28000 1011.000
68.32000 982.000
68.36000 1007.000
68.40000 1034.000
68.44000 1052.000
68.48000 1108.000
68.52000 1011.000
68.56000 1037.000
68.60000 995.000
68.64000 1038.000
68.68000 1036.000
68.72000 954.000
68.76000 1052.000
68.80000 978.000
68.84000 972.000
68.88000 1007.000
68.92000 968.000
68.96000 971.000
69.00000 984.000
69.04000 1010.000
69.08000 929.000
69.12000 984.000
69.16000 979.000
69.20000 951.000
69.24000 983.000
69.28000 927.000
69.32000 993.000
69.36000 919.000
69.40000 958.000
69.44000 1017.000
69.48000 991.000
69.52000 972.000
69.56000 948.000
69.60000 857.000
69.64000 1020.000
69.68000 972.000
69.72000 928.000
69.76000 947.000
69.80000 918.000
69.84000 906.000
69.88000 996.000
69.92000 997.000
