5.00000 225.000
5.02000 219.000
5.04000 218.000
5.06000 201.000
5.08000 220.000
5.10000 213.000
5.12000 168.000
5.14000 198.000
5.16000 183.000
5.18000 216.000
5.20000 188.000
5.22000 188.000
5.24000 216.000
5.26000 225.000
5.28000 208.000
5.30000 193.000
5.32000 210.000
5.34000 195.000
5.36000 210.000
5.38000 219.000
5.40000 191.000
5.42000 202.000
5.44000 193.000
5.46000 174.000
5.48000 186.000
5.50000 208.000
5.52000 184.000
5.54000 188.000
5.56000 218.000
5.58000 179.000
5.60000 190.000
5.62000 181.000
5.64000 198.000
5.66000 209.000
5.68000 193.000
5.70000 186.000
5.72000 194.000
5.74000 228.000
5.76000 199.000
5.78000 191.000
5.80000 199.000
5.82000 190.000
5.84000 178.000
5.86000 189.000
5.88000 163.000
5.90000 204.000
5.92000 179.000
5.94000 183.000
5.96000 175.000
5.98000 189.000
6.00000 163.000
6.02000 196.000
6.04000 180.000
6.06000 200.000
6.08000 162.000
6.10000 165.000
6.12000 167.000
6.14000 186.000
6.16000 179.000
6.18000 182.000
6.20000 192.000
6.22000 169.000
6.24000 161.000
6.26000 169.000
6.28000 160.000
6.30000 176.000
6.32000 197.000
6.34000 162.000
6.36000 167.000
6.38000 177.000
6.40000 187.000
6.42000 188.000
6.44000 154.000
6.46000 159.000
6.48000 158.000
6.50000 148.000
6.52000 194.000
6.54000 162.000
6.56000 162.000
6.58000 157.000
6.60000 154.000
6.62000 148.000
6.64000 172.000
6.66000 165.000
6.68000 154.000
6.70000 163.000
6.72000 159.000
6.74000 179.000
6.76000 186.000
6.78000 176.000
6.80000 166.000
6.82000 176.000
6.84000 157.000
6.86000 144.000
6.88000 138.000
6.90000 172.000
6.92000 162.000
6.94000 167.000
6.96000 149.000
6.98000 157.000
7.00000 165.000
7.02000 153.000
7.04000 136.000
7.06000 152.000
7.08000 173.000
7.10000 154.000
7.12000 152.000
7.14000 152.000
7.16000 149.000
7.18000 157.000
7.20000 168.000
7.22000 158.000
7.24000 179.000
7.26000 154.000
7.28000 162.000
7.30000 149.000
7.32000 144.000
7.34000 144.000
7.36000 156.000
7.38000 134.000
7.40000 127.000
7.42000 141.000
7.44000 133.000
7.46000 156.000
7.48000 142.000
7.50000 144.000
7.52000 145.000
7.54000 176.000
7.56000 147.000
7.58000 137.000
7.60000 152.000
7.62000 136.000
7.64000 148.000
7.66000 143.000
7.68000 145.000
7.70000 145.000
7.72000 143.000
7.74000 150.000
7.76000 127.000
7.78000 138.000
7.80000 148.000
7.82000 147.000
7.84000 138.000
7.86000 137.000
7.88000 139.000
7.90000 134.000
7.92000 153.000
7.94000 136.000
7.96000 158.000
7.98000 111.000
8.00000 147.000
8.02000 127.000
8.04000 140.000
8.06000 159.000
8.08000 132.000
8.10000 157.000
8.12000 128.000
8.14000 135.000
8.16000 149.000
8.18000 124.000
8.20000 115.000
8.22000 151.000
8.24000 150.000
8.26000 146.000
8.28000 154.000
8.30000 139.000
8.32000 141.000
8.34000 144.000
8.36000 162.000
8.38000 138.000
8.40000 160.000
8.42000 167.000
8.44000 142.000
8.46000 136.000
8.48000 133.000
8.50000 152.000
8.52000 144.000
8.54000 134.000
8.56000 154.000
8.58000 152.000
8.60000 167.000
8.62000 176.000
8.64000 187.000
8.66000 207.000
8.68000 183.000
8.70000 180.000
8.72000 189.000
8.74000 186.000
8.76000 149.000
8.78000 154.000
8.80000 159.000
8.82000 158.000
8.84000 154.000
8.86000 138.000
8.88000 148.000
8.90000 159.000
8.92000 158.000
8.94000 127.000
8.96000 150.000
8.98000 145.000
9.00000 168.000
9.02000 179.000
9.04000 143.000
9.06000 147.000
9.08000 117.000
9.10000 127.000
9.12000 131.000
9.14000 125.000
9.16000 136.000
9.18000 106.000
9.20000 125.000
9.22000 120.000
9.24000 129.000
9.26000 105.000
9.28000 117.000
9.30000 133.000
9.32000 120.000
9.34000 113.000
9.36000 130.000
9.38000 119.000
9.40000 119.000
9.42000 118.000
9.44000 113.000
9.46000 130.000
9.48000 124.000
9.50000 128.000
9.52000 127.000
9.54000 130.000
9.56000 117.000
9.58000 116.000
9.60000 124.000
9.62000 112.000
9.64000 123.000
9.66000 108.000
9.68000 98.000
9.70000 111.000
9.72000 104.000
9.74000 130.000
9.76000 102.000
9.78000 127.000
9.80000 107.000
9.82000 113.000
9.84000 100.000
9.86000 119.000
9.88000 121.000
9.90000 117.000
9.92000 136.000
9.94000 116.000
9.96000 127.000
9.98000 116.000
10.00000 106.000
10.02000 132.000
10.04000 132.000
10.06000 95.000
10.08000 124.000
10.10000 91.000
10.12000 123.000
10.14000 121.000
10.16000 142.000
10.18000 107.000
10.20000 122.000
10.22000 127.000
10.24000 126.000
10.26000 121.000
10.28000 100.000
10.30000 105.000
10.32000 129.000
10.34000 119.000
10.36000 104.000
10.38000 125.000
10.40000 114.000
10.42000 132.000
10.44000 125.000
10.46000 126.000
10.48000 115.000
10.50000 115.000
10.52000 107.000
10.54000 112.000
10.56000 105.000
10.58000 121.000
10.60000 136.000
10.62000 123.000
10.64000 110.000
10.66000 119.000
10.68000 121.000
10.70000 128.000
10.72000 120.000
10.74000 130.000
10.76000 124.000
10.78000 125.000
10.80000 126.000
10.82000 131.000
10.84000 125.000
10.86000 133.000
10.88000 109.000
10.90000 120.000
10.92000 129.000
10.94000 117.000
10.96000 138.000
10.98000 100.000
11.00000 103.000
11.02000 106.000
11.04000 125.000
11.06000 116.000
11.08000 102.000
11.10000 141.000
11.12000 109.000
11.14000 112.000
11.16000 94.000
11.18000 117.000
11.20000 127.000
11.22000 109.000
11.24000 103.000
11.26000 104.000
11.28000 107.000
11.30000 116.000
11.32000 110.000
11.34000 116.000
11.36000 104.000
11.38000 103.000
11.40000 122.000
11.42000 101.000
11.44000 113.000
11.46000 99.000
11.48000 146.000
11.50000 118.000
11.52000 107.000
11.54000 90.000
11.56000 97.000
11.58000 108.000
11.60000 98.000
11.62000 130.000
11.64000 95.000
11.66000 114.000
11.68000 107.000
11.70000 103.000
11.72000 118.000
11.74000 89.000
11.76000 114.000
11.78000 90.000
11.80000 117.000
11.82000 98.000
11.84000 90.000
11.86000 94.000
11.88000 108.000
11.90000 121.000
11.92000 104.000
11.94000 103.000
11.96000 115.000
11.98000 114.000
12.00000 121.000
12.02000 118.000
12.04000 97.000
12.06000 100.000
12.08000 119.000
12.10000 87.000
12.12000 108.000
12.14000 102.000
12.16000 104.000
12.18000 124.000
12.20000 99.000
12.22000 103.000
12.24000 117.000
12.26000 108.000
12.28000 109.000
12.30000 99.000
12.32000 121.000
12.34000 121.000
12.36000 107.000
12.38000 111.000
12.40000 112.000
12.42000 111.000
12.44000 116.000
12.46000 120.000
12.48000 118.000
12.50000 126.000
12.52000 122.000
12.54000 106.000
12.56000 125.000
12.58000 121.000
12.60000 137.000
12.62000 138.000
12.64000 162.000
12.66000 142.000
12.68000 149.000
12.70000 173.000
12.72000 170.000
12.74000 159.000
12.76000 161.000
12.78000 157.000
12.80000 144.000
12.82000 134.000
12.84000 132.000
12.86000 126.000
12.88000 117.000
12.90000 113.000
12.92000 123.000
12.94000 118.000
12.96000 110.000
12.98000 131.000
13.00000 131.000
13.02000 117.000
13.04000 117.000
13.06000 132.000
13.08000 129.000
13.10000 125.000
13.12000 129.000
13.14000 136.000
13.16000 137.000
13.18000 150.000
13.20000 146.000
13.22000 173.000
13.24000 159.000
13.26000 175.000
13.28000 178.000
13.30000 212.000
13.32000 207.000
13.34000 229.000
13.36000 237.000
13.38000 265.000
13.40000 259.000
13.42000 305.000
13.44000 317.000
13.46000 357.000
13.48000 356.000
13.50000 419.000
13.52000 474.000
13.54000 516.000
13.56000 603.000
13.58000 633.000
13.60000 695.000
13.62000 653.000
13.64000 538.000
13.66000 415.000
13.68000 342.000
13.70000 296.000
13.72000 208.000
13.74000 181.000
13.76000 163.000
13.78000 146.000
13.80000 142.000
13.82000 106.000
13.84000 117.000
13.86000 108.000
13.88000 97.000
13.90000 112.000
13.92000 97.000
13.94000 96.000
13.96000 114.000
13.98000 101.000
14.00000 114.000
14.02000 105.000
14.04000 89.000
14.06000 98.000
14.08000 96.000
14.10000 103.000
14.12000 85.000
14.14000 94.000
14.16000 107.000
14.18000 84.000
14.20000 92.000
14.22000 91.000
14.24000 101.000
14.26000 80.000
14.28000 89.000
14.30000 88.000
14.32000 97.000
14.34000 103.000
14.36000 98.000
14.38000 109.000
14.40000 127.000
14.42000 115.000
14.44000 99.000
14.46000 105.000
14.48000 114.000
14.50000 91.000
14.52000 93.000
14.54000 111.000
14.56000 128.000
14.58000 106.000
14.60000 104.000
14.62000 114.000
14.64000 99.000
14.66000 95.000
14.68000 100.000
14.70000 92.000
14.72000 106.000
14.74000 94.000
14.76000 109.000
14.78000 93.000
14.80000 115.000
14.82000 99.000
14.84000 128.000
14.86000 108.000
14.88000 103.000
14.90000 118.000
14.92000 110.000
14.94000 124.000
14.96000 121.000
14.98000 123.000
15.00000 138.000
15.02000 124.000
15.04000 160.000
15.06000 135.000
15.08000 132.000
15.10000 131.000
15.12000 159.000
15.14000 209.000
15.16000 171.000
15.18000 179.000
15.20000 202.000
15.22000 231.000
15.24000 201.000
15.26000 223.000
15.28000 254.000
15.30000 246.000
15.32000 230.000
15.34000 250.000
15.36000 258.000
15.38000 286.000
15.40000 337.000
15.42000 318.000
15.44000 361.000
15.46000 429.000
15.48000 435.000
15.50000 463.000
15.52000 510.000
15.54000 572.000
15.56000 648.000
15.58000 748.000
15.60000 805.000
15.62000 954.000
15.64000 1137.000
15.66000 1302.000
15.68000 1459.000
15.70000 1546.000
15.72000 1576.000
15.74000 1413.000
15.76000 1155.000
15.78000 966.000
15.80000 707.000
15.82000 518.000
15.84000 413.000
15.86000 277.000
15.88000 244.000
15.90000 213.000
15.92000 175.000
15.94000 146.000
15.96000 145.000
15.98000 123.000
16.00000 135.000
16.02000 114.000
16.04000 117.000
16.06000 135.000
16.08000 107.000
16.10000 95.000
16.12000 117.000
16.14000 105.000
16.16000 102.000
16.18000 112.000
16.20000 119.000
16.22000 99.000
16.24000 113.000
16.26000 116.000
16.28000 96.000
16.30000 119.000
16.32000 97.000
16.34000 114.000
16.36000 115.000
16.38000 98.000
16.40000 83.000
16.42000 106.000
16.44000 101.000
16.46000 110.000
16.48000 115.000
16.50000 108.000
16.52000 111.000
16.54000 117.000
16.56000 81.000
16.58000 102.000
16.60000 105.000
16.62000 90.000
16.64000 121.000
16.66000 120.000
16.68000 120.000
16.70000 106.000
16.72000 98.000
16.74000 114.000
16.76000 100.000
16.78000 88.000
16.80000 98.000
16.82000 115.000
16.84000 106.000
16.86000 92.000
16.88000 109.000
16.90000 105.000
16.92000 96.000
16.94000 106.000
16.96000 112.000
16.98000 115.000
17.00000 97.000
17.02000 114.000
17.04000 89.000
17.06000 85.000
17.08000 111.000
17.10000 102.000
17.12000 103.000
17.14000 98.000
17.16000 107.000
17.18000 102.000
17.20000 118.000
17.22000 113.000
17.24000 121.000
17.26000 107.000
17.28000 104.000
17.30000 106.000
17.32000 116.000
17.34000 97.000
17.36000 90.000
17.38000 115.000
17.40000 116.000
17.42000 122.000
17.44000 105.000
17.46000 96.000
17.48000 104.000
17.50000 110.000
17.52000 109.000
17.54000 119.000
17.56000 110.000
17.58000 112.000
17.60000 107.000
17.62000 93.000
17.64000 111.000
17.66000 95.000
17.68000 116.000
17.70000 128.000
17.72000 131.000
17.74000 108.000
17.76000 113.000
17.78000 133.000
17.80000 127.000
17.82000 111.000
17.84000 141.000
17.86000 117.000
17.88000 128.000
17.90000 129.000
17.92000 123.000
17.94000 120.000
17.96000 136.000
17.98000 134.000
18.00000 166.000
18.02000 147.000
18.04000 140.000
18.06000 169.000
18.08000 129.000
18.10000 147.000
18.12000 118.000
18.14000 121.000
18.16000 109.000
18.18000 118.000
18.20000 114.000
18.22000 124.000
18.24000 118.000
18.26000 110.000
18.28000 111.000
18.30000 127.000
18.32000 121.000
18.34000 124.000
18.36000 108.000
18.38000 116.000
18.40000 119.000
18.42000 104.000
18.44000 126.000
18.46000 100.000
18.48000 126.000
18.50000 133.000
18.52000 120.000
18.54000 131.000
18.56000 105.000
18.58000 138.000
18.60000 102.000
18.62000 111.000
18.64000 128.000
18.66000 144.000
18.68000 114.000
18.70000 133.000
18.72000 109.000
18.74000 113.000
18.76000 124.000
18.78000 130.000
18.80000 116.000
18.82000 129.000
18.84000 120.000
18.86000 111.000
18.88000 127.000
18.90000 104.000
18.92000 132.000
18.94000 133.000
18.96000 131.000
18.98000 131.000
19.00000 125.000
19.02000 133.000
19.04000 127.000
19.06000 113.000
19.08000 136.000
19.10000 136.000
19.12000 133.000
19.14000 137.000
19.16000 126.000
19.18000 115.000
19.20000 131.000
19.22000 132.000
19.24000 109.000
19.26000 123.000
19.28000 117.000
19.30000 131.000
19.32000 141.000
19.34000 132.000
19.36000 130.000
19.38000 130.000
19.40000 144.000
19.42000 114.000
19.44000 149.000
19.46000 137.000
19.48000 141.000
19.50000 131.000
19.52000 159.000
19.54000 134.000
19.56000 131.000
19.58000 140.000
19.60000 143.000
19.62000 145.000
19.64000 135.000
19.66000 136.000
19.68000 148.000
19.70000 113.000
19.72000 132.000
19.74000 149.000
19.76000 141.000
19.78000 138.000
19.80000 129.000
19.82000 107.000
19.84000 143.000
19.86000 128.000
19.88000 143.000
19.90000 139.000
19.92000 124.000
19.94000 153.000
19.96000 142.000
19.98000 150.000
20.00000 132.000
20.02000 151.000
20.04000 131.000
20.06000 136.000
20.08000 133.000
20.10000 129.000
20.12000 150.000
20.14000 144.000
20.16000 144.000
20.18000 128.000
20.20000 153.000
20.22000 132.000
20.24000 138.000
20.26000 137.000
20.28000 129.000
20.30000 125.000
20.32000 142.000
20.34000 148.000
20.36000 119.000
20.38000 135.000
20.40000 123.000
20.42000 154.000
20.44000 127.000
20.46000 153.000
20.48000 128.000
20.50000 134.000
20.52000 126.000
20.54000 148.000
20.56000 157.000
20.58000 124.000
20.60000 140.000
20.62000 115.000
20.64000 133.000
20.66000 140.000
20.68000 153.000
20.70000 163.000
20.72000 131.000
20.74000 139.000
20.76000 144.000
20.78000 133.000
20.80000 154.000
20.82000 125.000
20.84000 153.000
20.86000 141.000
20.88000 135.000
20.90000 138.000
20.92000 142.000
20.94000 158.000
20.96000 160.000
20.98000 149.000
21.00000 152.000
21.02000 163.000
21.04000 155.000
21.06000 192.000
21.08000 182.000
21.10000 162.000
21.12000 187.000
21.14000 164.000
21.16000 214.000
21.18000 181.000
21.20000 202.000
21.22000 179.000
21.24000 180.000
21.26000 215.000
21.28000 183.000
21.30000 170.000
21.32000 171.000
21.34000 205.000
21.36000 191.000
21.38000 180.000
21.40000 152.000
21.42000 148.000
21.44000 121.000
21.46000 153.000
21.48000 153.000
21.50000 163.000
21.52000 153.000
21.54000 142.000
21.56000 166.000
21.58000 155.000
21.60000 186.000
21.62000 194.000
21.64000 174.000
21.66000 177.000
21.68000 164.000
21.70000 178.000
21.72000 206.000
21.74000 185.000
21.76000 179.000
21.78000 189.000
21.80000 214.000
21.82000 213.000
21.84000 247.000
21.86000 254.000
21.88000 270.000
21.90000 281.000
21.92000 324.000
21.94000 339.000
21.96000 376.000
21.98000 441.000
22.00000 468.000
22.02000 519.000
22.04000 603.000
22.06000 674.000
22.08000 723.000
22.10000 858.000
22.12000 946.000
22.14000 1044.000
22.16000 1130.000
22.18000 1305.000
22.20000 1557.000
22.22000 1720.000
22.24000 1917.000
22.26000 2164.000
22.28000 2189.000
22.30000 2262.000
22.32000 2011.000
22.34000 1799.000
22.36000 1452.000
22.38000 1129.000
22.40000 859.000
22.42000 640.000
22.44000 497.000
22.46000 441.000
22.48000 355.000
22.50000 314.000
22.52000 259.000
22.54000 207.000
22.56000 203.000
22.58000 194.000
22.60000 184.000
22.62000 161.000
22.64000 175.000
22.66000 189.000
22.68000 177.000
22.70000 165.000
22.72000 160.000
22.74000 180.000
22.76000 169.000
22.78000 147.000
22.80000 158.000
22.82000 176.000
22.84000 158.000
22.86000 167.000
22.88000 178.000
22.90000 155.000
22.92000 173.000
22.94000 143.000
22.96000 165.000
22.98000 163.000
23.00000 138.000
23.02000 168.000
23.04000 167.000
23.06000 164.000
23.08000 151.000
23.10000 152.000
23.12000 159.000
23.14000 169.000
23.16000 186.000
23.18000 183.000
23.20000 144.000
23.22000 183.000
23.24000 170.000
23.26000 167.000
23.28000 169.000
23.30000 179.000
23.32000 146.000
23.34000 146.000
23.36000 172.000
23.38000 182.000
23.40000 177.000
23.42000 165.000
23.44000 178.000
23.46000 169.000
23.48000 188.000
23.50000 145.000
23.52000 162.000
23.54000 186.000
23.56000 177.000
23.58000 177.000
23.60000 156.000
23.62000 166.000
23.64000 224.000
23.66000 193.000
23.68000 175.000
23.70000 181.000
23.72000 173.000
23.74000 184.000
23.76000 208.000
23.78000 208.000
23.80000 200.000
23.82000 190.000
23.84000 171.000
23.86000 165.000
23.88000 177.000
23.90000 168.000
23.92000 171.000
23.94000 178.000
23.96000 161.000
23.98000 166.000
24.00000 177.000
24.02000 174.000
24.04000 179.000
24.06000 175.000
24.08000 162.000
24.10000 164.000
24.12000 168.000
24.14000 184.000
24.16000 182.000
24.18000 174.000
24.20000 172.000
24.22000 170.000
24.24000 221.000
24.26000 174.000
24.28000 167.000
24.30000 176.000
24.32000 177.000
24.34000 172.000
24.36000 166.000
24.38000 165.000
24.40000 154.000
24.42000 173.000
24.44000 172.000
24.46000 181.000
24.48000 190.000
24.50000 166.000
24.52000 155.000
24.54000 167.000
24.56000 166.000
24.58000 173.000
24.60000 173.000
24.62000 201.000
24.64000 182.000
24.66000 194.000
24.68000 197.000
24.70000 200.000
24.72000 194.000
24.74000 184.000
24.76000 165.000
24.78000 168.000
24.80000 189.000
24.82000 152.000
24.84000 178.000
24.86000 188.000
24.88000 201.000
24.90000 178.000
24.92000 164.000
24.94000 175.000
24.96000 187.000
24.98000 171.000
25.00000 173.000
25.02000 150.000
25.04000 165.000
25.06000 168.000
25.08000 169.000
25.10000 153.000
25.12000 190.000
25.14000 150.000
25.16000 180.000
25.18000 184.000
25.20000 181.000
25.22000 183.000
25.24000 185.000
25.26000 197.000
25.28000 172.000
25.30000 196.000
25.32000 188.000
25.34000 192.000
25.36000 189.000
25.38000 178.000
25.40000 159.000
25.42000 191.000
25.44000 186.000
25.46000 179.000
25.48000 187.000
25.50000 176.000
25.52000 200.000
25.54000 195.000
25.56000 175.000
25.58000 212.000
25.60000 177.000
25.62000 197.000
25.64000 194.000
25.66000 183.000
25.68000 163.000
25.70000 193.000
25.72000 182.000
25.74000 215.000
25.76000 166.000
25.78000 175.000
25.80000 189.000
25.82000 167.000
25.84000 197.000
25.86000 173.000
25.88000 190.000
25.90000 206.000
25.92000 200.000
25.94000 193.000
25.96000 192.000
25.98000 224.000
26.00000 220.000
26.02000 215.000
26.04000 236.000
26.06000 278.000
26.08000 261.000
26.10000 290.000
26.12000 290.000
26.14000 369.000
26.16000 362.000
26.18000 352.000
26.20000 372.000
26.22000 381.000
26.24000 348.000
26.26000 299.000
26.28000 287.000
26.30000 321.000
26.32000 259.000
26.34000 220.000
26.36000 228.000
26.38000 203.000
26.40000 192.000
26.42000 198.000
26.44000 183.000
26.46000 173.000
26.48000 185.000
26.50000 169.000
26.52000 181.000
26.54000 179.000
26.56000 187.000
26.58000 192.000
26.60000 194.000
26.62000 199.000
26.64000 194.000
26.66000 215.000
26.68000 205.000
26.70000 196.000
26.72000 192.000
26.74000 169.000
26.76000 189.000
26.78000 215.000
26.80000 193.000
26.82000 198.000
26.84000 185.000
26.86000 204.000
26.88000 223.000
26.90000 216.000
26.92000 228.000
26.94000 214.000
26.96000 229.000
26.98000 245.000
27.00000 257.000
27.02000 279.000
27.04000 292.000
27.06000 313.000
27.08000 350.000
27.10000 397.000
27.12000 426.000
27.14000 465.000
27.16000 512.000
27.18000 585.000
27.20000 668.000
27.22000 733.000
27.24000 838.000
27.26000 957.000
27.28000 1153.000
27.30000 1365.000
27.32000 1669.000
27.34000 1794.000
27.36000 2003.000
27.38000 2138.000
27.40000 1962.000
27.42000 1868.000
27.44000 1616.000
27.46000 1387.000
27.48000 1194.000
27.50000 898.000
27.52000 682.000
27.54000 606.000
27.56000 493.000
27.58000 408.000
27.60000 299.000
27.62000 332.000
27.64000 242.000
27.66000 250.000
27.68000 236.000
27.70000 225.000
27.72000 223.000
27.74000 229.000
27.76000 194.000
27.78000 201.000
27.80000 213.000
27.82000 171.000
27.84000 198.000
27.86000 196.000
27.88000 178.000
27.90000 185.000
27.92000 189.000
27.94000 181.000
27.96000 177.000
27.98000 178.000
28.00000 196.000
28.02000 168.000
28.04000 151.000
28.06000 185.000
28.08000 159.000
28.10000 182.000
28.12000 152.000
28.14000 193.000
28.16000 140.000
28.18000 179.000
28.20000 161.000
28.22000 193.000
28.24000 161.000
28.26000 189.000
28.28000 164.000
28.30000 180.000
28.32000 161.000
28.34000 154.000
28.36000 163.000
28.38000 194.000
28.40000 183.000
28.42000 149.000
28.44000 173.000
28.46000 173.000
28.48000 174.000
28.50000 185.000
28.52000 177.000
28.54000 182.000
28.56000 157.000
28.58000 166.000
28.60000 174.000
28.62000 174.000
28.64000 179.000
28.66000 197.000
28.68000 182.000
28.70000 167.000
28.72000 182.000
28.74000 175.000
28.76000 185.000
28.78000 170.000
28.80000 172.000
28.82000 192.000
28.84000 207.000
28.86000 163.000
28.88000 187.000
28.90000 159.000
28.92000 175.000
28.94000 185.000
28.96000 178.000
28.98000 170.000
29.00000 174.000
29.02000 196.000
29.04000 162.000
29.06000 146.000
29.08000 181.000
29.10000 172.000
29.12000 153.000
29.14000 152.000
29.16000 167.000
29.18000 172.000
29.20000 161.000
29.22000 193.000
29.24000 173.000
29.26000 197.000
29.28000 194.000
29.30000 193.000
29.32000 193.000
29.34000 186.000
29.36000 174.000
29.38000 201.000
29.40000 190.000
29.42000 194.000
29.44000 191.000
29.46000 188.000
29.48000 187.000
29.50000 218.000
29.52000 221.000
29.54000 194.000
29.56000 211.000
29.58000 244.000
29.60000 215.000
29.62000 238.000
29.64000 254.000
29.66000 237.000
29.68000 229.000
29.70000 255.000
29.72000 217.000
29.74000 225.000
29.76000 220.000
29.78000 185.000
29.80000 202.000
29.82000 184.000
29.84000 191.000
29.86000 195.000
29.88000 180.000
29.90000 173.000
29.92000 187.000
29.94000 142.000
29.96000 173.000
29.98000 184.000
30.00000 183.000
30.02000 158.000
30.04000 170.000
30.06000 188.000
30.08000 172.000
30.10000 190.000
30.12000 172.000
30.14000 176.000
30.16000 194.000
30.18000 169.000
30.20000 171.000
30.22000 190.000
30.24000 162.000
30.26000 188.000
30.28000 167.000
30.30000 184.000
30.32000 185.000
30.34000 180.000
30.36000 175.000
30.38000 158.000
30.40000 184.000
30.42000 175.000
30.44000 193.000
30.46000 157.000
30.48000 194.000
30.50000 167.000
30.52000 171.000
30.54000 193.000
30.56000 176.000
30.58000 204.000
30.60000 225.000
30.62000 212.000
30.64000 243.000
30.66000 229.000
30.68000 242.000
30.70000 237.000
30.72000 287.000
30.74000 283.000
30.76000 300.000
30.78000 321.000
30.80000 348.000
30.82000 351.000
30.84000 367.000
30.86000 341.000
30.88000 334.000
30.90000 300.000
30.92000 313.000
30.94000 275.000
30.96000 290.000
30.98000 245.000
31.00000 244.000
31.02000 258.000
31.04000 218.000
31.06000 234.000
31.08000 226.000
31.10000 225.000
31.12000 226.000
31.14000 199.000
31.16000 230.000
31.18000 240.000
31.20000 251.000
31.22000 205.000
31.24000 222.000
31.26000 226.000
31.28000 241.000
31.30000 265.000
31.32000 301.000
31.34000 308.000
31.36000 374.000
31.38000 413.000
31.40000 451.000
31.42000 520.000
31.44000 551.000
31.46000 663.000
31.48000 807.000
31.50000 919.000
31.52000 1122.000
31.54000 1297.000
31.56000 1527.000
31.58000 1797.000
31.60000 2196.000
31.62000 2683.000
31.64000 3197.000
31.66000 3731.000
31.68000 4390.000
31.70000 4812.000
31.72000 4935.000
31.74000 4966.000
31.76000 4588.000
31.78000 3993.000
31.80000 3639.000
31.82000 3024.000
31.84000 2468.000
31.86000 1802.000
31.88000 1406.000
31.90000 1029.000
31.92000 789.000
31.94000 651.000
31.96000 509.000
31.98000 437.000
32.00000 406.000
32.02000 340.000
32.04000 297.000
32.06000 277.000
32.08000 293.000
32.10000 245.000
32.12000 242.000
32.14000 202.000
32.16000 221.000
32.18000 220.000
32.20000 216.000
32.22000 185.000
32.24000 204.000
32.26000 178.000
32.28000 168.000
32.30000 177.000
32.32000 179.000
32.34000 177.000
32.36000 195.000
32.38000 160.000
32.40000 188.000
32.42000 141.000
32.44000 160.000
32.46000 194.000
32.48000 184.000
32.50000 174.000
32.52000 167.000
32.54000 142.000
32.56000 188.000
32.58000 165.000
32.60000 178.000
32.62000 148.000
32.64000 168.000
32.66000 168.000
32.68000 193.000
32.70000 173.000
32.72000 144.000
32.74000 157.000
32.76000 140.000
32.78000 147.000
32.80000 147.000
32.82000 154.000
32.84000 155.000
32.86000 147.000
32.88000 153.000
32.90000 130.000
32.92000 153.000
32.94000 135.000
32.96000 163.000
32.98000 142.000
33.00000 133.000
33.02000 156.000
33.04000 154.000
33.06000 162.000
33.08000 136.000
33.10000 144.000
33.12000 148.000
33.14000 144.000
33.16000 154.000
33.18000 164.000
33.20000 150.000
33.22000 146.000
33.24000 124.000
33.26000 147.000
33.28000 143.000
33.30000 139.000
33.32000 162.000
33.34000 133.000
33.36000 119.000
33.38000 132.000
33.40000 126.000
33.42000 167.000
33.44000 172.000
33.46000 136.000
33.48000 142.000
33.50000 139.000
33.52000 162.000
33.54000 146.000
33.56000 165.000
33.58000 168.000
33.60000 135.000
33.62000 146.000
33.64000 153.000
33.66000 143.000
33.68000 136.000
33.70000 150.000
33.72000 173.000
33.74000 192.000
33.76000 159.000
33.78000 172.000
33.80000 168.000
33.82000 216.000
33.84000 160.000
33.86000 202.000
33.88000 189.000
33.90000 205.000
33.92000 173.000
33.94000 198.000
33.96000 205.000
33.98000 224.000
34.00000 197.000
34.02000 199.000
34.04000 212.000
34.06000 201.000
34.08000 172.000
34.10000 203.000
34.12000 196.000
34.14000 187.000
34.16000 167.000
34.18000 160.000
34.20000 151.000
34.22000 164.000
34.24000 161.000
34.26000 128.000
34.28000 127.000
34.30000 147.000
34.32000 118.000
34.34000 156.000
34.36000 125.000
34.38000 148.000
34.40000 146.000
34.42000 136.000
34.44000 161.000
34.46000 150.000
34.48000 173.000
34.50000 158.000
34.52000 158.000
34.54000 155.000
34.56000 177.000
34.58000 196.000
34.60000 199.000
34.62000 218.000
34.64000 243.000
34.66000 221.000
34.68000 232.000
34.70000 239.000
34.72000 216.000
34.74000 219.000
34.76000 195.000
34.78000 172.000
34.80000 153.000
34.82000 154.000
34.84000 157.000
34.86000 137.000
34.88000 149.000
34.90000 134.000
34.92000 143.000
34.94000 117.000
34.96000 152.000
34.98000 143.000
35.00000 130.000
35.02000 129.000
35.04000 147.000
35.06000 150.000
35.08000 140.000
35.10000 141.000
35.12000 143.000
35.14000 144.000
35.16000 161.000
35.18000 171.000
35.20000 149.000
35.22000 189.000
35.24000 149.000
35.26000 169.000
35.28000 165.000
35.30000 164.000
35.32000 149.000
35.34000 158.000
35.36000 159.000
35.38000 210.000
35.40000 207.000
35.42000 244.000
35.44000 266.000
35.46000 333.000
35.48000 362.000
35.50000 442.000
35.52000 483.000
35.54000 526.000
35.56000 555.000
35.58000 610.000
35.60000 616.000
35.62000 568.000
35.64000 507.000
35.66000 477.000
35.68000 437.000
35.70000 394.000
35.72000 326.000
35.74000 283.000
35.76000 226.000
35.78000 212.000
35.80000 207.000
35.82000 158.000
35.84000 138.000
35.86000 149.000
35.88000 149.000
35.90000 123.000
35.92000 115.000
35.94000 142.000
35.96000 105.000
35.98000 129.000
36.00000 120.000
36.02000 124.000
36.04000 107.000
36.06000 115.000
36.08000 119.000
36.10000 108.000
36.12000 103.000
36.14000 116.000
36.16000 106.000
36.18000 102.000
36.20000 117.000
36.22000 123.000
36.24000 110.000
36.26000 112.000
36.28000 112.000
36.30000 113.000
36.32000 91.000
36.34000 125.000
36.36000 101.000
36.38000 107.000
36.40000 116.000
36.42000 82.000
36.44000 105.000
36.46000 114.000
36.48000 124.000
36.50000 102.000
36.52000 84.000
36.54000 100.000
36.56000 112.000
36.58000 109.000
36.60000 115.000
36.62000 121.000
36.64000 110.000
36.66000 108.000
36.68000 116.000
36.70000 112.000
36.72000 116.000
36.74000 110.000
36.76000 104.000
36.78000 132.000
36.80000 105.000
36.82000 120.000
36.84000 105.000
36.86000 97.000
36.88000 91.000
36.90000 90.000
36.92000 104.000
36.94000 100.000
36.96000 104.000
36.98000 118.000
37.00000 116.000
37.02000 95.000
37.04000 100.000
37.06000 97.000
37.08000 95.000
37.10000 97.000
37.12000 99.000
37.14000 115.000
37.16000 123.000
37.18000 118.000
37.20000 103.000
37.22000 123.000
37.24000 126.000
37.26000 97.000
37.28000 119.000
37.30000 93.000
37.32000 102.000
37.34000 116.000
37.36000 95.000
37.38000 89.000
37.40000 131.000
37.42000 100.000
37.44000 108.000
37.46000 121.000
37.48000 125.000
37.50000 102.000
37.52000 102.000
37.54000 112.000
37.56000 108.000
37.58000 99.000
37.60000 112.000
37.62000 106.000
37.64000 106.000
37.66000 115.000
37.68000 90.000
37.70000 108.000
37.72000 106.000
37.74000 87.000
37.76000 124.000
37.78000 121.000
37.80000 120.000
37.82000 120.000
37.84000 119.000
37.86000 119.000
37.88000 111.000
37.90000 101.000
37.92000 106.000
37.94000 123.000
37.96000 113.000
37.98000 114.000
38.00000 97.000
38.02000 108.000
38.04000 108.000
38.06000 117.000
38.08000 110.000
38.10000 113.000
38.12000 112.000
38.14000 137.000
38.16000 129.000
38.18000 107.000
38.20000 143.000
38.22000 124.000
38.24000 145.000
38.26000 135.000
38.28000 134.000
38.30000 146.000
38.32000 151.000
38.34000 141.000
38.36000 124.000
38.38000 125.000
38.40000 137.000
38.42000 122.000
38.44000 122.000
38.46000 105.000
38.48000 108.000
38.50000 125.000
38.52000 105.000
38.54000 139.000
38.56000 104.000
38.58000 137.000
38.60000 124.000
38.62000 126.000
38.64000 162.000
38.66000 131.000
38.68000 153.000
38.70000 173.000
38.72000 180.000
38.74000 186.000
38.76000 193.000
38.78000 199.000
38.80000 244.000
38.82000 238.000
38.84000 256.000
38.86000 329.000
38.88000 315.000
38.90000 404.000
38.92000 464.000
38.94000 482.000
38.96000 615.000
38.98000 689.000
39.00000 854.000
39.02000 1020.000
39.04000 1112.000
39.06000 1372.000
39.08000 1652.000
39.10000 1662.000
39.12000 1731.000
39.14000 1591.000
39.16000 1519.000
39.18000 1394.000
39.20000 1290.000
39.22000 1141.000
39.24000 981.000
39.26000 759.000
39.28000 648.000
39.30000 504.000
39.32000 404.000
39.34000 360.000
39.36000 276.000
39.38000 254.000
39.40000 217.000
39.42000 187.000
39.44000 132.000
39.46000 158.000
39.48000 129.000
39.50000 153.000
39.52000 134.000
39.54000 134.000
39.56000 124.000
39.58000 126.000
39.60000 113.000
39.62000 120.000
39.64000 127.000
39.66000 129.000
39.68000 106.000
39.70000 103.000
39.72000 108.000
39.74000 94.000
39.76000 113.000
39.78000 104.000
39.80000 108.000
39.82000 100.000
39.84000 118.000
39.86000 107.000
39.88000 96.000
39.90000 104.000
39.92000 93.000
39.94000 103.000
39.96000 103.000
39.98000 105.000
40.00000 91.000
40.02000 103.000
40.04000 107.000
40.06000 100.000
40.08000 85.000
40.10000 112.000
40.12000 117.000
40.14000 97.000
40.16000 96.000
40.18000 107.000
40.20000 92.000
40.22000 99.000
40.24000 95.000
40.26000 99.000
40.28000 96.000
40.30000 103.000
40.32000 112.000
40.34000 113.000
40.36000 104.000
40.38000 102.000
40.40000 115.000
40.42000 78.000
40.44000 122.000
40.46000 100.000
40.48000 102.000
40.50000 108.000
40.52000 97.000
40.54000 104.000
40.56000 105.000
40.58000 96.000
40.60000 114.000
40.62000 115.000
40.64000 95.000
40.66000 85.000
40.68000 113.000
40.70000 107.000
40.72000 107.000
40.74000 102.000
40.76000 95.000
40.78000 120.000
40.80000 94.000
40.82000 93.000
40.84000 98.000
40.86000 96.000
40.88000 96.000
40.90000 96.000
40.92000 108.000
40.94000 97.000
40.96000 94.000
40.98000 87.000
41.00000 90.000
41.02000 95.000
41.04000 98.000
41.06000 108.000
41.08000 106.000
41.10000 121.000
41.12000 104.000
41.14000 82.000
41.16000 90.000
41.18000 88.000
41.20000 98.000
41.22000 100.000
41.24000 84.000
41.26000 99.000
41.28000 87.000
41.30000 84.000
41.32000 86.000
41.34000 85.000
41.36000 91.000
41.38000 83.000
41.40000 118.000
41.42000 103.000
41.44000 96.000
41.46000 105.000
41.48000 129.000
41.50000 110.000
41.52000 133.000
41.54000 119.000
41.56000 152.000
41.58000 170.000
41.60000 147.000
41.62000 147.000
41.64000 131.000
41.66000 163.000
41.68000 149.000
41.70000 148.000
41.72000 129.000
41.74000 133.000
41.76000 118.000
41.78000 101.000
41.80000 112.000
41.82000 96.000
41.84000 83.000
41.86000 86.000
41.88000 86.000
41.90000 88.000
41.92000 81.000
41.94000 110.000
41.96000 103.000
41.98000 83.000
42.00000 102.000
42.02000 102.000
42.04000 97.000
42.06000 96.000
42.08000 102.000
42.10000 98.000
42.12000 106.000
42.14000 110.000
42.16000 86.000
42.18000 116.000
42.20000 81.000
42.22000 78.000
42.24000 82.000
42.26000 83.000
42.28000 75.000
42.30000 97.000
42.32000 75.000
42.34000 98.000
42.36000 91.000
42.38000 96.000
42.40000 97.000
42.42000 88.000
42.44000 76.000
42.46000 101.000
42.48000 87.000
42.50000 95.000
42.52000 88.000
42.54000 95.000
42.56000 87.000
42.58000 85.000
42.60000 94.000
42.62000 92.000
42.64000 86.000
42.66000 96.000
42.68000 71.000
42.70000 93.000
42.72000 107.000
42.74000 82.000
42.76000 116.000
42.78000 93.000
42.80000 85.000
42.82000 92.000
42.84000 114.000
42.86000 80.000
42.88000 111.000
42.90000 103.000
42.92000 113.000
42.94000 112.000
42.96000 108.000
42.98000 99.000
43.00000 115.000
43.02000 100.000
43.04000 105.000
43.06000 95.000
43.08000 99.000
43.10000 85.000
43.12000 78.000
43.14000 110.000
43.16000 86.000
43.18000 97.000
43.20000 118.000
43.22000 109.000
43.24000 102.000
43.26000 77.000
43.28000 93.000
43.30000 100.000
43.32000 109.000
43.34000 130.000
43.36000 97.000
43.38000 106.000
43.40000 112.000
43.42000 123.000
43.44000 100.000
43.46000 117.000
43.48000 109.000
43.50000 94.000
43.52000 119.000
43.54000 93.000
43.56000 90.000
43.58000 108.000
43.60000 99.000
43.62000 113.000
43.64000 89.000
43.66000 82.000
43.68000 100.000
43.70000 112.000
43.72000 101.000
43.74000 96.000
43.76000 98.000
43.78000 91.000
43.80000 97.000
43.82000 96.000
43.84000 90.000
43.86000 72.000
43.88000 96.000
43.90000 105.000
43.92000 97.000
43.94000 96.000
43.96000 90.000
43.98000 96.000
44.00000 100.000
44.02000 83.000
44.04000 78.000
44.06000 90.000
44.08000 94.000
44.10000 95.000
44.12000 116.000
44.14000 96.000
44.16000 89.000
44.18000 122.000
44.20000 117.000
44.22000 109.000
44.24000 99.000
44.26000 110.000
44.28000 110.000
44.30000 132.000
44.32000 125.000
44.34000 105.000
44.36000 113.000
44.38000 124.000
44.40000 117.000
44.42000 113.000
44.44000 117.000
44.46000 114.000
44.48000 88.000
44.50000 111.000
44.52000 98.000
44.54000 97.000
44.56000 91.000
44.58000 81.000
44.60000 93.000
44.62000 104.000
44.64000 109.000
44.66000 99.000
44.68000 97.000
44.70000 89.000
44.72000 115.000
44.74000 92.000
44.76000 106.000
44.78000 94.000
44.80000 98.000
44.82000 104.000
44.84000 104.000
44.86000 105.000
44.88000 114.000
44.90000 120.000
44.92000 126.000
44.94000 119.000
44.96000 135.000
44.98000 137.000
45.00000 138.000
45.02000 138.000
45.04000 145.000
45.06000 174.000
45.08000 147.000
45.10000 172.000
45.12000 195.000
45.14000 194.000
45.16000 191.000
45.18000 223.000
45.20000 232.000
45.22000 263.000
45.24000 261.000
45.26000 322.000
45.28000 370.000
45.30000 395.000
45.32000 502.000
45.34000 582.000
45.36000 753.000
45.38000 815.000
45.40000 1007.000
45.42000 1272.000
45.44000 1355.000
45.46000 1502.000
45.48000 1494.000
45.50000 1506.000
45.52000 1353.000
45.54000 1213.000
45.56000 1125.000
45.58000 1001.000
45.60000 940.000
45.62000 840.000
45.64000 674.000
45.66000 551.000
45.68000 445.000
45.70000 347.000
45.72000 326.000
45.74000 269.000
45.76000 215.000
45.78000 190.000
45.80000 167.000
45.82000 147.000
45.84000 137.000
45.86000 129.000
45.88000 126.000
45.90000 118.000
45.92000 113.000
45.94000 109.000
45.96000 108.000
45.98000 127.000
46.00000 107.000
46.02000 121.000
46.04000 126.000
46.06000 114.000
46.08000 104.000
46.10000 96.000
46.12000 103.000
46.14000 95.000
46.16000 94.000
46.18000 95.000
46.20000 107.000
46.22000 92.000
46.24000 102.000
46.26000 87.000
46.28000 86.000
46.30000 103.000
46.32000 103.000
46.34000 90.000
46.36000 91.000
46.38000 98.000
46.40000 89.000
46.42000 98.000
46.44000 73.000
46.46000 93.000
46.48000 79.000
46.50000 90.000
46.52000 112.000
46.54000 85.000
46.56000 94.000
46.58000 83.000
46.60000 91.000
46.62000 99.000
46.64000 76.000
46.66000 93.000
46.68000 102.000
46.70000 101.000
46.72000 103.000
46.74000 89.000
46.76000 101.000
46.78000 70.000
46.80000 96.000
46.82000 92.000
46.84000 102.000
46.86000 114.000
46.88000 95.000
46.90000 105.000
46.92000 102.000
46.94000 99.000
46.96000 111.000
46.98000 95.000
47.00000 104.000
47.02000 92.000
47.04000 105.000
47.06000 104.000
47.08000 102.000
47.10000 87.000
47.12000 101.000
47.14000 98.000
47.16000 88.000
47.18000 112.000
47.20000 110.000
47.22000 94.000
47.24000 79.000
47.26000 82.000
47.28000 98.000
47.30000 79.000
47.32000 87.000
47.34000 87.000
47.36000 95.000
47.38000 89.000
47.40000 96.000
47.42000 85.000
47.44000 82.000
47.46000 80.000
47.48000 104.000
47.50000 106.000
47.52000 102.000
47.54000 103.000
47.56000 115.000
47.58000 115.000
47.60000 128.000
47.62000 132.000
47.64000 129.000
47.66000 143.000
47.68000 146.000
47.70000 128.000
47.72000 151.000
47.74000 136.000
47.76000 144.000
47.78000 133.000
47.80000 125.000
47.82000 120.000
47.84000 123.000
47.86000 104.000
47.88000 107.000
47.90000 108.000
47.92000 98.000
47.94000 87.000
47.96000 83.000
47.98000 101.000
48.00000 94.000
48.02000 103.000
48.04000 90.000
48.06000 91.000
48.08000 92.000
48.10000 80.000
48.12000 97.000
48.14000 95.000
48.16000 98.000
48.18000 99.000
48.20000 99.000
48.22000 112.000
48.24000 131.000
48.26000 129.000
48.28000 150.000
48.30000 205.000
48.32000 218.000
48.34000 206.000
48.36000 256.000
48.38000 296.000
48.40000 286.000
48.42000 266.000
48.44000 276.000
48.46000 241.000
48.48000 241.000
48.50000 236.000
48.52000 212.000
48.54000 183.000
48.56000 163.000
48.58000 170.000
48.60000 167.000
48.62000 132.000
48.64000 133.000
48.66000 123.000
48.68000 104.000
48.70000 101.000
48.72000 116.000
48.74000 111.000
48.76000 117.000
48.78000 94.000
48.80000 101.000
48.82000 97.000
48.84000 83.000
48.86000 99.000
48.88000 88.000
48.90000 106.000
48.92000 122.000
48.94000 100.000
48.96000 90.000
48.98000 89.000
49.00000 84.000
49.02000 91.000
49.04000 97.000
49.06000 101.000
49.08000 91.000
49.10000 104.000
49.12000 92.000
49.14000 93.000
49.16000 93.000
49.18000 112.000
49.20000 59.000
49.22000 79.000
49.24000 80.000
49.26000 90.000
49.28000 101.000
49.30000 100.000
49.32000 81.000
49.34000 95.000
49.36000 94.000
49.38000 87.000
49.40000 77.000
49.42000 88.000
49.44000 85.000
49.46000 83.000
49.48000 68.000
49.50000 87.000
49.52000 76.000
49.54000 90.000
49.56000 79.000
49.58000 87.000
49.60000 92.000
49.62000 88.000
49.64000 99.000
49.66000 105.000
49.68000 82.000
49.70000 80.000
49.72000 93.000
49.74000 83.000
49.76000 87.000
49.78000 100.000
49.80000 79.000
49.82000 97.000
49.84000 76.000
49.86000 83.000
49.88000 95.000
49.90000 82.000
49.92000 83.000
49.94000 87.000
49.96000 65.000
49.98000 92.000
50.00000 84.000
50.02000 86.000
50.04000 71.000
50.06000 80.000
50.08000 74.000
50.10000 74.000
50.12000 91.000
50.14000 81.000
50.16000 101.000
50.18000 75.000
50.20000 75.000
50.22000 84.000
50.24000 93.000
50.26000 71.000
50.28000 80.000
50.30000 86.000
50.32000 88.000
50.34000 84.000
50.36000 83.000
50.38000 72.000
50.40000 99.000
50.42000 92.000
50.44000 87.000
50.46000 74.000
50.48000 80.000
50.50000 76.000
50.52000 87.000
50.54000 74.000
50.56000 89.000
50.58000 90.000
50.60000 85.000
50.62000 82.000
50.64000 99.000
50.66000 91.000
50.68000 83.000
50.70000 92.000
50.72000 101.000
50.74000 96.000
50.76000 88.000
50.78000 84.000
50.80000 83.000
50.82000 85.000
50.84000 111.000
50.86000 85.000
50.88000 101.000
50.90000 112.000
50.92000 125.000
50.94000 120.000
50.96000 139.000
50.98000 145.000
51.00000 178.000
51.02000 183.000
51.04000 216.000
51.06000 258.000
51.08000 282.000
51.10000 300.000
51.12000 308.000
51.14000 360.000
51.16000 399.000
51.18000 445.000
51.20000 447.000
51.22000 409.000
51.24000 439.000
51.26000 378.000
51.28000 368.000
51.30000 305.000
51.32000 305.000
51.34000 289.000
51.36000 273.000
51.38000 207.000
51.40000 199.000
51.42000 179.000
51.44000 135.000
51.46000 140.000
51.48000 116.000
51.50000 113.000
51.52000 91.000
51.54000 96.000
51.56000 100.000
51.58000 84.000
51.60000 98.000
51.62000 86.000
51.64000 110.000
51.66000 89.000
51.68000 94.000
51.70000 90.000
51.72000 88.000
51.74000 77.000
51.76000 77.000
51.78000 94.000
51.80000 117.000
51.82000 85.000
51.84000 92.000
51.86000 69.000
51.88000 82.000
51.90000 76.000
51.92000 81.000
51.94000 71.000
51.96000 72.000
51.98000 81.000
52.00000 79.000
52.02000 86.000
52.04000 74.000
52.06000 81.000
52.08000 74.000
52.10000 68.000
52.12000 82.000
52.14000 70.000
52.16000 87.000
52.18000 75.000
52.20000 82.000
52.22000 92.000
52.24000 87.000
52.26000 85.000
52.28000 76.000
52.30000 94.000
52.32000 63.000
52.34000 61.000
52.36000 77.000
52.38000 74.000
52.40000 84.000
52.42000 84.000
52.44000 86.000
52.46000 71.000
52.48000 74.000
52.50000 71.000
52.52000 78.000
52.54000 63.000
52.56000 84.000
52.58000 82.000
52.60000 95.000
52.62000 95.000
52.64000 87.000
52.66000 84.000
52.68000 79.000
52.70000 87.000
52.72000 96.000
52.74000 81.000
52.76000 80.000
52.78000 64.000
52.80000 85.000
52.82000 67.000
52.84000 78.000
52.86000 74.000
52.88000 72.000
52.90000 67.000
52.92000 78.000
52.94000 90.000
52.96000 78.000
52.98000 73.000
53.00000 85.000
53.02000 82.000
53.04000 71.000
53.06000 97.000
53.08000 83.000
53.10000 87.000
53.12000 79.000
53.14000 90.000
53.16000 87.000
53.18000 106.000
53.20000 102.000
53.22000 100.000
53.24000 99.000
53.26000 95.000
53.28000 100.000
53.30000 97.000
53.32000 90.000
53.34000 94.000
53.36000 91.000
53.38000 104.000
53.40000 91.000
53.42000 79.000
53.44000 93.000
53.46000 90.000
53.48000 78.000
53.50000 91.000
53.52000 93.000
53.54000 92.000
53.56000 80.000
53.58000 83.000
53.60000 112.000
53.62000 85.000
53.64000 116.000
53.66000 90.000
53.68000 85.000
53.70000 103.000
53.72000 118.000
53.74000 119.000
53.76000 133.000
53.78000 141.000
53.80000 156.000
53.82000 185.000
53.84000 199.000
53.86000 236.000
53.88000 260.000
53.90000 264.000
53.92000 268.000
53.94000 241.000
53.96000 217.000
53.98000 212.000
54.00000 200.000
54.02000 187.000
54.04000 201.000
54.06000 189.000
54.08000 157.000
54.10000 138.000
54.12000 123.000
54.14000 120.000
54.16000 110.000
54.18000 112.000
54.20000 83.000
54.22000 98.000
54.24000 102.000
54.26000 94.000
54.28000 93.000
54.30000 75.000
54.32000 97.000
54.34000 61.000
54.36000 83.000
54.38000 98.000
54.40000 83.000
54.42000 88.000
54.44000 81.000
54.46000 78.000
54.48000 102.000
54.50000 73.000
54.52000 69.000
54.54000 79.000
54.56000 78.000
54.58000 74.000
54.60000 75.000
54.62000 86.000
54.64000 79.000
54.66000 76.000
54.68000 70.000
54.70000 67.000
54.72000 83.000
54.74000 82.000
54.76000 78.000
54.78000 75.000
54.80000 82.000
54.82000 86.000
54.84000 66.000
54.86000 73.000
54.88000 88.000
54.90000 91.000
54.92000 94.000
54.94000 89.000
54.96000 81.000
54.98000 84.000
55.00000 90.000
55.02000 94.000
55.04000 99.000
55.06000 95.000
55.08000 103.000
55.10000 79.000
55.12000 95.000
55.14000 79.000
55.16000 85.000
55.18000 92.000
55.20000 80.000
55.22000 86.000
55.24000 78.000
55.26000 70.000
55.28000 81.000
55.30000 75.000
55.32000 76.000
55.34000 73.000
55.36000 82.000
55.38000 88.000
55.40000 83.000
55.42000 75.000
55.44000 90.000
55.46000 93.000
55.48000 75.000
55.50000 74.000
55.52000 79.000
55.54000 78.000
55.56000 83.000
55.58000 86.000
55.60000 96.000
55.62000 76.000
55.64000 98.000
55.66000 75.000
55.68000 62.000
55.70000 94.000
55.72000 75.000
55.74000 88.000
55.76000 81.000
55.78000 91.000
55.80000 81.000
55.82000 87.000
55.84000 89.000
55.86000 99.000
55.88000 75.000
55.90000 91.000
55.92000 85.000
55.94000 90.000
55.96000 81.000
55.98000 81.000
56.00000 98.000
56.02000 94.000
56.04000 93.000
56.06000 75.000
56.08000 86.000
56.10000 86.000
56.12000 97.000
56.14000 84.000
56.16000 100.000
56.18000 66.000
56.20000 82.000
56.22000 101.000
56.24000 96.000
56.26000 93.000
56.28000 105.000
56.30000 99.000
56.32000 120.000
56.34000 126.000
56.36000 144.000
56.38000 153.000
56.40000 179.000
56.42000 212.000
56.44000 257.000
56.46000 303.000
56.48000 303.000
56.50000 322.000
56.52000 319.000
56.54000 310.000
56.56000 293.000
56.58000 247.000
56.60000 235.000
56.62000 233.000
56.64000 230.000
56.66000 212.000
56.68000 219.000
56.70000 202.000
56.72000 159.000
56.74000 138.000
56.76000 150.000
56.78000 121.000
56.80000 107.000
56.82000 104.000
56.84000 87.000
56.86000 81.000
56.88000 85.000
56.90000 69.000
56.92000 90.000
56.94000 78.000
56.96000 83.000
56.98000 62.000
57.00000 73.000
57.02000 67.000
57.04000 68.000
57.06000 67.000
57.08000 77.000
57.10000 101.000
57.12000 74.000
57.14000 69.000
57.16000 65.000
57.18000 87.000
57.20000 79.000
57.22000 66.000
57.24000 82.000
57.26000 57.000
57.28000 70.000
57.30000 83.000
57.32000 76.000
57.34000 79.000
57.36000 88.000
57.38000 65.000
57.40000 77.000
57.42000 90.000
57.44000 71.000
57.46000 73.000
57.48000 68.000
57.50000 70.000
57.52000 70.000
57.54000 71.000
57.56000 81.000
57.58000 88.000
57.60000 76.000
57.62000 72.000
57.64000 73.000
57.66000 77.000
57.68000 57.000
57.70000 80.000
57.72000 82.000
57.74000 73.000
57.76000 62.000
57.78000 76.000
57.80000 65.000
57.82000 69.000
57.84000 83.000
57.86000 85.000
57.88000 88.000
57.90000 69.000
57.92000 75.000
57.94000 85.000
57.96000 72.000
57.98000 65.000
58.00000 74.000
58.02000 70.000
58.04000 69.000
58.06000 89.000
58.08000 79.000
58.10000 75.000
58.12000 63.000
58.14000 81.000
58.16000 79.000
58.18000 76.000
58.20000 79.000
58.22000 82.000
58.24000 92.000
58.26000 84.000
58.28000 113.000
58.30000 84.000
58.32000 95.000
58.34000 103.000
58.36000 95.000
58.38000 85.000
58.40000 106.000
58.42000 101.000
58.44000 97.000
58.46000 92.000
58.48000 115.000
58.50000 101.000
58.52000 105.000
58.54000 96.000
58.56000 89.000
58.58000 86.000
58.60000 84.000
58.62000 85.000
58.64000 84.000
58.66000 74.000
58.68000 71.000
58.70000 67.000
58.72000 81.000
58.74000 69.000
58.76000 70.000
58.78000 63.000
58.80000 78.000
58.82000 78.000
58.84000 85.000
58.86000 77.000
58.88000 76.000
58.90000 81.000
58.92000 75.000
58.94000 107.000
58.96000 101.000
58.98000 89.000
59.00000 122.000
59.02000 118.000
59.04000 130.000
59.06000 129.000
59.08000 120.000
59.10000 119.000
59.12000 113.000
59.14000 111.000
59.16000 106.000
59.18000 102.000
59.20000 106.000
59.22000 100.000
59.24000 108.000
59.26000 94.000
59.28000 83.000
59.30000 84.000
59.32000 70.000
59.34000 84.000
59.36000 82.000
59.38000 83.000
59.40000 67.000
59.42000 73.000
59.44000 68.000
59.46000 82.000
59.48000 78.000
59.50000 59.000
59.52000 77.000
59.54000 71.000
59.56000 58.000
59.58000 63.000
59.60000 77.000
59.62000 72.000
59.64000 79.000
59.66000 84.000
59.68000 65.000
59.70000 79.000
59.72000 76.000
59.74000 76.000
59.76000 70.000
59.78000 88.000
59.80000 71.000
59.82000 78.000
59.84000 77.000
59.86000 80.000
59.88000 76.000
59.90000 84.000
59.92000 71.000
59.94000 63.000
59.96000 61.000
59.98000 77.000
60.00000 73.000
60.02000 67.000
60.04000 68.000
60.06000 68.000
60.08000 67.000
60.10000 77.000
60.12000 68.000
60.14000 89.000
60.16000 82.000
60.18000 66.000
60.20000 74.000
60.22000 72.000
60.24000 71.000
60.26000 75.000
60.28000 68.000
60.30000 77.000
60.32000 92.000
60.34000 59.000
60.36000 52.000
60.38000 55.000
60.40000 85.000
60.42000 71.000
60.44000 61.000
60.46000 62.000
60.48000 79.000
60.50000 72.000
60.52000 75.000
60.54000 86.000
60.56000 68.000
60.58000 77.000
60.60000 59.000
60.62000 63.000
60.64000 59.000
60.66000 66.000
60.68000 76.000
60.70000 78.000
60.72000 72.000
60.74000 61.000
60.76000 58.000
60.78000 70.000
60.80000 84.000
60.82000 76.000
60.84000 52.000
60.86000 71.000
60.88000 70.000
60.90000 87.000
60.92000 60.000
60.94000 79.000
60.96000 77.000
60.98000 77.000
61.00000 71.000
61.02000 92.000
61.04000 77.000
61.06000 78.000
61.08000 90.000
61.10000 86.000
61.12000 61.000
61.14000 87.000
61.16000 68.000
61.18000 72.000
61.20000 80.000
61.22000 93.000
61.24000 81.000
61.26000 81.000
61.28000 106.000
61.30000 118.000
61.32000 128.000
61.34000 139.000
61.36000 145.000
61.38000 185.000
61.40000 223.000
61.42000 247.000
61.44000 278.000
61.46000 314.000
61.48000 345.000
61.50000 366.000
61.52000 341.000
61.54000 317.000
61.56000 280.000
61.58000 281.000
61.60000 258.000
61.62000 238.000
61.64000 244.000
61.66000 270.000
61.68000 217.000
61.70000 205.000
61.72000 188.000
61.74000 155.000
61.76000 141.000
61.78000 113.000
61.80000 101.000
61.82000 107.000
61.84000 96.000
61.86000 103.000
61.88000 100.000
61.90000 83.000
61.92000 91.000
61.94000 71.000
61.96000 70.000
61.98000 71.000
62.00000 62.000
62.02000 80.000
62.04000 70.000
62.06000 73.000
62.08000 85.000
62.10000 87.000
62.12000 71.000
62.14000 53.000
62.16000 67.000
62.18000 68.000
62.20000 57.000
62.22000 59.000
62.24000 68.000
62.26000 70.000
62.28000 74.000
62.30000 52.000
62.32000 82.000
62.34000 53.000
62.36000 77.000
62.38000 65.000
62.40000 68.000
62.42000 63.000
62.44000 70.000
62.46000 81.000
62.48000 64.000
62.50000 72.000
62.52000 60.000
62.54000 78.000
62.56000 66.000
62.58000 74.000
62.60000 51.000
62.62000 71.000
62.64000 67.000
62.66000 68.000
62.68000 64.000
62.70000 75.000
62.72000 57.000
62.74000 78.000
62.76000 64.000
62.78000 55.000
62.80000 77.000
62.82000 75.000
62.84000 81.000
62.86000 58.000
62.88000 74.000
62.90000 82.000
62.92000 68.000
62.94000 61.000
62.96000 66.000
62.98000 59.000
63.00000 62.000
63.02000 51.000
63.04000 56.000
63.06000 60.000
63.08000 70.000
63.10000 82.000
63.12000 66.000
63.14000 69.000
63.16000 66.000
63.18000 66.000
63.20000 76.000
63.22000 74.000
63.24000 79.000
63.26000 97.000
63.28000 108.000
63.30000 110.000
63.32000 81.000
63.34000 73.000
63.36000 101.000
63.38000 62.000
63.40000 72.000
63.42000 65.000
63.44000 69.000
63.46000 75.000
63.48000 93.000
63.50000 85.000
63.52000 53.000
63.54000 76.000
63.56000 56.000
63.58000 65.000
63.60000 57.000
63.62000 62.000
63.64000 71.000
63.66000 59.000
63.68000 61.000
63.70000 65.000
63.72000 55.000
63.74000 62.000
63.76000 67.000
63.78000 59.000
63.80000 52.000
63.82000 63.000
63.84000 53.000
63.86000 59.000
63.88000 62.000
63.90000 62.000
63.92000 70.000
63.94000 75.000
63.96000 46.000
63.98000 57.000
64.00000 72.000
64.02000 45.000
64.04000 55.000
64.06000 64.000
64.08000 76.000
64.10000 58.000
64.12000 64.000
64.14000 64.000
64.16000 59.000
64.18000 67.000
64.20000 66.000
64.22000 47.000
64.24000 61.000
64.26000 78.000
64.28000 63.000
64.30000 60.000
64.32000 50.000
64.34000 60.000
64.36000 66.000
64.38000 63.000
64.40000 57.000
64.42000 69.000
64.44000 67.000
64.46000 77.000
64.48000 69.000
64.50000 54.000
64.52000 53.000
64.54000 74.000
64.56000 55.000
64.58000 60.000
64.60000 75.000
64.62000 61.000
64.64000 85.000
64.66000 68.000
64.68000 77.000
64.70000 78.000
64.72000 48.000
64.74000 70.000
64.76000 40.000
64.78000 62.000
64.80000 63.000
64.82000 64.000
64.84000 59.000
64.86000 64.000
64.88000 61.000
64.90000 63.000
64.92000 64.000
64.94000 59.000
64.96000 59.000
64.98000 60.000
65.00000 60.000
65.02000 59.000
65.04000 53.000
65.06000 59.000
65.08000 55.000
65.10000 70.000
65.12000 62.000
65.14000 48.000
65.16000 77.000
65.18000 69.000
65.20000 64.000
65.22000 60.000
65.24000 62.000
65.26000 58.000
65.28000 50.000
65.30000 46.000
65.32000 58.000
65.34000 59.000
65.36000 47.000
65.38000 61.000
65.40000 46.000
65.42000 72.000
65.44000 45.000
65.46000 52.000
65.48000 51.000
65.50000 64.000
65.52000 57.000
65.54000 68.000
65.56000 43.000
65.58000 54.000
65.60000 66.000
65.62000 64.000
65.64000 60.000
65.66000 66.000
65.68000 55.000
65.70000 58.000
65.72000 50.000
65.74000 56.000
65.76000 59.000
65.78000 57.000
65.80000 68.000
65.82000 61.000
65.84000 47.000
65.86000 77.000
65.88000 54.000
65.90000 57.000
65.92000 65.000
65.94000 50.000
65.96000 68.000
65.98000 63.000
66.00000 43.000
66.02000 68.000
66.04000 88.000
66.06000 83.000
66.08000 63.000
66.10000 88.000
66.12000 75.000
66.14000 92.000
66.16000 96.000
66.18000 116.000
66.20000 146.000
66.22000 140.000
66.24000 136.000
66.26000 138.000
66.28000 134.000
66.30000 131.000
66.32000 133.000
66.34000 126.000
66.36000 129.000
66.38000 105.000
66.40000 112.000
66.42000 111.000
66.44000 108.000
66.46000 107.000
66.48000 96.000
66.50000 91.000
66.52000 82.000
66.54000 90.000
66.56000 71.000
66.58000 73.000
66.60000 72.000
66.62000 77.000
66.64000 59.000
66.66000 59.000
66.68000 69.000
66.70000 77.000
66.72000 66.000
66.74000 82.000
66.76000 56.000
66.78000 65.000
66.80000 51.000
66.82000 60.000
66.84000 87.000
66.86000 58.000
66.88000 54.000
66.90000 57.000
66.92000 65.000
66.94000 61.000
66.96000 59.000
66.98000 48.000
67.00000 74.000
67.02000 51.000
67.04000 82.000
67.06000 80.000
67.08000 62.000
67.10000 46.000
67.12000 61.000
67.14000 52.000
67.16000 60.000
67.18000 81.000
67.20000 73.000
67.22000 56.000
67.24000 46.000
67.26000 62.000
67.28000 62.000
67.30000 69.000
67.32000 60.000
67.34000 56.000
67.36000 59.000
67.38000 64.000
67.40000 62.000
67.42000 58.000
67.44000 63.000
67.46000 65.000
67.48000 45.000
67.50000 66.000
67.52000 68.000
67.54000 67.000
67.56000 58.000
67.58000 66.000
67.60000 48.000
67.62000 58.000
67.64000 54.000
67.66000 56.000
67.68000 60.000
67.70000 55.000
67.72000 67.000
67.74000 69.000
67.76000 55.000
67.78000 69.000
67.80000 57.000
67.82000 60.000
67.84000 62.000
67.86000 63.000
67.88000 67.000
67.90000 68.000
67.92000 66.000
67.94000 59.000
67.96000 91.000
67.98000 68.000
68.00000 65.000
68.02000 72.000
68.04000 63.000
68.06000 77.000
68.08000 77.000
68.10000 69.000
68.12000 61.000
68.14000 64.000
68.16000 64.000
68.18000 52.000
68.20000 74.000
68.22000 78.000
68.24000 72.000
68.26000 61.000
68.28000 75.000
68.30000 44.000
68.32000 64.000
68.34000 64.000
68.36000 62.000
68.38000 77.000
68.40000 63.000
68.42000 76.000
68.44000 77.000
68.46000 102.000
68.48000 103.000
68.50000 96.000
68.52000 101.000
68.54000 119.000
68.56000 109.000
68.58000 121.000
68.60000 108.000
68.62000 118.000
68.64000 110.000
68.66000 103.000
68.68000 123.000
68.70000 96.000
68.72000 101.000
68.74000 74.000
68.76000 98.000
68.78000 100.000
68.80000 81.000
68.82000 95.000
68.84000 80.000
68.86000 65.000
68.88000 82.000
68.90000 68.000
68.92000 70.000
68.94000 64.000
68.96000 70.000
68.98000 81.000
69.00000 63.000
69.02000 70.000
69.04000 52.000
69.06000 62.000
69.08000 63.000
69.10000 60.000
69.12000 48.000
69.14000 52.000
69.16000 65.000
69.18000 56.000
69.20000 48.000
69.22000 65.000
69.24000 50.000
69.26000 61.000
69.28000 50.000
69.30000 55.000
69.32000 69.000
69.34000 48.000
69.36000 53.000
69.38000 58.000
69.40000 46.000
69.42000 42.000
69.44000 64.000
69.46000 55.000
69.48000 61.000
69.50000 46.000
69.52000 64.000
69.54000 59.000
69.56000 77.000
69.58000 48.000
69.60000 62.000
69.62000 45.000
69.64000 55.000
69.66000 47.000
69.68000 59.000
69.70000 68.000
69.72000 55.000
69.74000 66.000
69.76000 57.000
69.78000 48.000
69.80000 61.000
69.82000 62.000
69.84000 56.000
69.86000 71.000
69.88000 52.000
69.90000 47.000
69.92000 63.000
69.94000 61.000
69.96000 71.000
