5.00000 295.000
5.02000 255.000
5.04000 255.000
5.06000 268.000
5.08000 275.000
5.10000 277.000
5.12000 235.000
5.14000 240.000
5.16000 252.000
5.18000 267.000
5.20000 231.000
5.22000 238.000
5.24000 257.000
5.26000 260.000
5.28000 218.000
5.30000 242.000
5.32000 200.000
5.34000 221.000
5.36000 229.000
5.38000 235.000
5.40000 239.000
5.42000 216.000
5.44000 249.000
5.46000 231.000
5.48000 239.000
5.50000 220.000
5.52000 255.000
5.54000 262.000
5.56000 265.000
5.58000 263.000
5.60000 245.000
5.62000 238.000
5.64000 257.000
5.66000 200.000
5.68000 242.000
5.70000 261.000
5.72000 195.000
5.74000 244.000
5.76000 216.000
5.78000 224.000
5.80000 215.000
5.82000 213.000
5.84000 219.000
5.86000 203.000
5.88000 242.000
5.90000 241.000
5.92000 225.000
5.94000 226.000
5.96000 210.000
5.98000 203.000
6.00000 203.000
6.02000 222.000
6.04000 207.000
6.06000 204.000
6.08000 228.000
6.10000 222.000
6.12000 213.000
6.14000 197.000
6.16000 202.000
6.18000 212.000
6.20000 206.000
6.22000 223.000
6.24000 215.000
6.26000 219.000
6.28000 193.000
6.30000 185.000
6.32000 210.000
6.34000 209.000
6.36000 240.000
6.38000 201.000
6.40000 210.000
6.42000 177.000
6.44000 185.000
6.46000 206.000
6.48000 218.000
6.50000 183.000
6.52000 222.000
6.54000 216.000
6.56000 214.000
6.58000 212.000
6.60000 187.000
6.62000 173.000
6.64000 186.000
6.66000 162.000
6.68000 192.000
6.70000 206.000
6.72000 192.000
6.74000 191.000
6.76000 193.000
6.78000 199.000
6.80000 207.000
6.82000 218.000
6.84000 202.000
6.86000 209.000
6.88000 193.000
6.90000 182.000
6.92000 217.000
6.94000 211.000
6.96000 198.000
6.98000 193.000
7.00000 192.000
7.02000 197.000
7.04000 187.000
7.06000 184.000
7.08000 187.000
7.10000 205.000
7.12000 196.000
7.14000 190.000
7.16000 193.000
7.18000 174.000
7.20000 149.000
7.22000 191.000
7.24000 180.000
7.26000 176.000
7.28000 181.000
7.30000 174.000
7.32000 168.000
7.34000 192.000
7.36000 204.000
7.38000 198.000
7.40000 165.000
7.42000 200.000
7.44000 192.000
7.46000 172.000
7.48000 186.000
7.50000 181.000
7.52000 206.000
7.54000 218.000
7.56000 197.000
7.58000 190.000
7.60000 182.000
7.62000 174.000
7.64000 171.000
7.66000 162.000
7.68000 196.000
7.70000 184.000
7.72000 195.000
7.74000 181.000
7.76000 164.000
7.78000 188.000
7.80000 166.000
7.82000 193.000
7.84000 193.000
7.86000 189.000
7.88000 216.000
7.90000 202.000
7.92000 195.000
7.94000 219.000
7.96000 203.000
7.98000 213.000
8.00000 185.000
8.02000 205.000
8.04000 192.000
8.06000 219.000
8.08000 213.000
8.10000 220.000
8.12000 220.000
8.14000 234.000
8.16000 238.000
8.18000 213.000
8.20000 228.000
8.22000 225.000
8.24000 259.000
8.26000 274.000
8.28000 224.000
8.30000 254.000
8.32000 287.000
8.34000 280.000
8.36000 300.000
8.38000 343.000
8.40000 356.000
8.42000 354.000
8.44000 399.000
8.46000 423.000
8.48000 430.000
8.50000 413.000
8.52000 492.000
8.54000 558.000
8.56000 576.000
8.58000 643.000
8.60000 763.000
8.62000 833.000
8.64000 896.000
8.66000 999.000
8.68000 990.000
8.70000 922.000
8.72000 712.000
8.74000 603.000
8.76000 435.000
8.78000 330.000
8.80000 308.000
8.82000 255.000
8.84000 221.000
8.86000 224.000
8.88000 208.000
8.90000 174.000
8.92000 177.000
8.94000 132.000
8.96000 164.000
8.98000 165.000
9.00000 152.000
9.02000 160.000
9.04000 137.000
9.06000 154.000
9.08000 136.000
9.10000 139.000
9.12000 151.000
9.14000 156.000
9.16000 186.000
9.18000 140.000
9.20000 160.000
9.22000 145.000
9.24000 169.000
9.26000 145.000
9.28000 143.000
9.30000 142.000
9.32000 157.000
9.34000 157.000
9.36000 141.000
9.38000 140.000
9.40000 142.000
9.42000 161.000
9.44000 184.000
9.46000 156.000
9.48000 131.000
9.50000 144.000
9.52000 143.000
9.54000 127.000
9.56000 140.000
9.58000 145.000
9.60000 157.000
9.62000 146.000
9.64000 136.000
9.66000 147.000
9.68000 148.000
9.70000 150.000
9.72000 128.000
9.74000 143.000
9.76000 133.000
9.78000 151.000
9.80000 162.000
9.82000 162.000
9.84000 145.000
9.86000 151.000
9.88000 151.000
9.90000 159.000
9.92000 139.000
9.94000 114.000
9.96000 120.000
9.98000 138.000
10.00000 168.000
10.02000 126.000
10.04000 157.000
10.06000 167.000
10.08000 127.000
10.10000 133.000
10.12000 128.000
10.14000 137.000
10.16000 140.000
10.18000 125.000
10.20000 128.000
10.22000 137.000
10.24000 161.000
10.26000 160.000
10.28000 162.000
10.30000 119.000
10.32000 143.000
10.34000 141.000
10.36000 146.000
10.38000 132.000
10.40000 146.000
10.42000 150.000
10.44000 146.000
10.46000 138.000
10.48000 142.000
10.50000 117.000
10.52000 159.000
10.54000 127.000
10.56000 128.000
10.58000 150.000
10.60000 149.000
10.62000 151.000
10.64000 131.000
10.66000 128.000
10.68000 156.000
10.70000 149.000
10.72000 167.000
10.74000 167.000
10.76000 166.000
10.78000 156.000
10.80000 156.000
10.82000 174.000
10.84000 152.000
10.86000 156.000
10.88000 152.000
10.90000 167.000
10.92000 127.000
10.94000 145.000
10.96000 147.000
10.98000 142.000
11.00000 123.000
11.02000 133.000
11.04000 119.000
11.06000 120.000
11.08000 134.000
11.10000 136.000
11.12000 134.000
11.14000 117.000
11.16000 114.000
11.18000 116.000
11.20000 122.000
11.22000 141.000
11.24000 136.000
11.26000 133.000
11.28000 133.000
11.30000 124.000
11.32000 133.000
11.34000 138.000
11.36000 150.000
11.38000 128.000
11.40000 136.000
11.42000 115.000
11.44000 143.000
11.46000 137.000
11.48000 130.000
11.50000 137.000
11.52000 133.000
11.54000 100.000
11.56000 131.000
11.58000 125.000
11.60000 149.000
11.62000 117.000
11.64000 132.000
11.66000 134.000
11.68000 125.000
11.70000 128.000
11.72000 112.000
11.74000 114.000
11.76000 123.000
11.78000 135.000
11.80000 131.000
11.82000 108.000
11.84000 109.000
11.86000 133.000
11.88000 120.000
11.90000 120.000
11.92000 128.000
11.94000 143.000
11.96000 110.000
11.98000 130.000
12.00000 140.000
12.02000 112.000
12.04000 122.000
12.06000 115.000
12.08000 136.000
12.10000 144.000
12.12000 124.000
12.14000 129.000
12.16000 132.000
12.18000 131.000
12.20000 140.000
12.22000 129.000
12.24000 149.000
12.26000 141.000
12.28000 151.000
12.30000 136.000
12.32000 141.000
12.34000 165.000
12.36000 159.000
12.38000 170.000
12.40000 150.000
12.42000 155.000
12.44000 154.000
12.46000 154.000
12.48000 166.000
12.50000 208.000
12.52000 198.000
12.54000 236.000
12.56000 269.000
12.58000 272.000
12.60000 312.000
12.62000 349.000
12.64000 381.000
12.66000 422.000
12.68000 408.000
12.70000 387.000
12.72000 347.000
12.74000 269.000
12.76000 238.000
12.78000 233.000
12.80000 203.000
12.82000 171.000
12.84000 167.000
12.86000 169.000
12.88000 155.000
12.90000 139.000
12.92000 143.000
12.94000 143.000
12.96000 133.000
12.98000 136.000
13.00000 118.000
13.02000 136.000
13.04000 146.000
13.06000 161.000
13.08000 153.000
13.10000 127.000
13.12000 154.000
13.14000 157.000
13.16000 172.000
13.18000 149.000
13.20000 179.000
13.22000 152.000
13.24000 180.000
13.26000 172.000
13.28000 212.000
13.30000 205.000
13.32000 208.000
13.34000 264.000
13.36000 244.000
13.38000 269.000
13.40000 272.000
13.42000 243.000
13.44000 224.000
13.46000 245.000
13.48000 242.000
13.50000 245.000
13.52000 261.000
13.54000 310.000
13.56000 316.000
13.58000 296.000
13.60000 285.000
13.62000 294.000
13.64000 232.000
13.66000 181.000
13.68000 175.000
13.70000 157.000
13.72000 132.000
13.74000 133.000
13.76000 144.000
13.78000 119.000
13.80000 131.000
13.82000 115.000
13.84000 125.000
13.86000 132.000
13.88000 131.000
13.90000 92.000
13.92000 117.000
13.94000 99.000
13.96000 114.000
13.98000 117.000
14.00000 122.000
14.02000 105.000
14.04000 114.000
14.06000 100.000
14.08000 104.000
14.10000 137.000
14.12000 126.000
14.14000 133.000
14.16000 144.000
14.18000 117.000
14.20000 109.000
14.22000 118.000
14.24000 127.000
14.26000 100.000
14.28000 122.000
14.30000 128.000
14.32000 121.000
14.34000 108.000
14.36000 105.000
14.38000 127.000
14.40000 108.000
14.42000 124.000
14.44000 147.000
14.46000 113.000
14.48000 127.000
14.50000 106.000
14.52000 118.000
14.54000 140.000
14.56000 126.000
14.58000 129.000
14.60000 140.000
14.62000 132.000
14.64000 136.000
14.66000 132.000
14.68000 125.000
14.70000 158.000
14.72000 147.000
14.74000 140.000
14.76000 138.000
14.78000 138.000
14.80000 156.000
14.82000 134.000
14.84000 142.000
14.86000 133.000
14.88000 142.000
14.90000 121.000
14.92000 148.000
14.94000 129.000
14.96000 147.000
14.98000 148.000
15.00000 120.000
15.02000 167.000
15.04000 168.000
15.06000 173.000
15.08000 148.000
15.10000 146.000
15.12000 173.000
15.14000 190.000
15.16000 198.000
15.18000 217.000
15.20000 220.000
15.22000 207.000
15.24000 249.000
15.26000 240.000
15.28000 270.000
15.30000 241.000
15.32000 257.000
15.34000 209.000
15.36000 207.000
15.38000 231.000
15.40000 222.000
15.42000 212.000
15.44000 234.000
15.46000 212.000
15.48000 233.000
15.50000 279.000
15.52000 281.000
15.54000 314.000
15.56000 364.000
15.58000 378.000
15.60000 394.000
15.62000 444.000
15.64000 489.000
15.66000 540.000
15.68000 546.000
15.70000 549.000
15.72000 579.000
15.74000 497.000
15.76000 389.000
15.78000 334.000
15.80000 298.000
15.82000 211.000
15.84000 205.000
15.86000 148.000
15.88000 172.000
15.90000 151.000
15.92000 122.000
15.94000 112.000
15.96000 143.000
15.98000 113.000
16.00000 109.000
16.02000 110.000
16.04000 102.000
16.06000 103.000
16.08000 131.000
16.10000 121.000
16.12000 109.000
16.14000 120.000
16.16000 112.000
16.18000 132.000
16.20000 113.000
16.22000 100.000
16.24000 112.000
16.26000 109.000
16.28000 131.000
16.30000 129.000
16.32000 116.000
16.34000 109.000
16.36000 117.000
16.38000 129.000
16.40000 98.000
16.42000 123.000
16.44000 98.000
16.46000 124.000
16.48000 112.000
16.50000 115.000
16.52000 112.000
16.54000 122.000
16.56000 104.000
16.58000 121.000
16.60000 115.000
16.62000 132.000
16.64000 108.000
16.66000 116.000
16.68000 136.000
16.70000 133.000
16.72000 123.000
16.74000 111.000
16.76000 118.000
16.78000 111.000
16.80000 121.000
16.82000 114.000
16.84000 110.000
16.86000 102.000
16.88000 120.000
16.90000 113.000
16.92000 120.000
16.94000 98.000
16.96000 98.000
16.98000 103.000
17.00000 107.000
17.02000 130.000
17.04000 114.000
17.06000 116.000
17.08000 124.000
17.10000 114.000
17.12000 117.000
17.14000 113.000
17.16000 142.000
17.18000 135.000
17.20000 104.000
17.22000 99.000
17.24000 121.000
17.26000 116.000
17.28000 127.000
17.30000 119.000
17.32000 133.000
17.34000 125.000
17.36000 128.000
17.38000 131.000
17.40000 134.000
17.42000 130.000
17.44000 122.000
17.46000 141.000
17.48000 123.000
17.50000 128.000
17.52000 111.000
17.54000 108.000
17.56000 132.000
17.58000 129.000
17.60000 105.000
17.62000 125.000
17.64000 114.000
17.66000 136.000
17.68000 104.000
17.70000 123.000
17.72000 131.000
17.74000 101.000
17.76000 120.000
17.78000 126.000
17.80000 122.000
17.82000 101.000
17.84000 116.000
17.86000 112.000
17.88000 135.000
17.90000 128.000
17.92000 133.000
17.94000 127.000
17.96000 134.000
17.98000 128.000
18.00000 113.000
18.02000 133.000
18.04000 112.000
18.06000 140.000
18.08000 124.000
18.10000 116.000
18.12000 119.000
18.14000 103.000
18.16000 124.000
18.18000 124.000
18.20000 108.000
18.22000 113.000
18.24000 118.000
18.26000 129.000
18.28000 117.000
18.30000 107.000
18.32000 130.000
18.34000 120.000
18.36000 146.000
18.38000 114.000
18.40000 120.000
18.42000 116.000
18.44000 109.000
18.46000 133.000
18.48000 114.000
18.50000 121.000
18.52000 115.000
18.54000 130.000
18.56000 155.000
18.58000 143.000
18.60000 137.000
18.62000 155.000
18.64000 112.000
18.66000 126.000
18.68000 138.000
18.70000 143.000
18.72000 121.000
18.74000 130.000
18.76000 142.000
18.78000 147.000
18.80000 139.000
18.82000 158.000
18.84000 130.000
18.86000 138.000
18.88000 143.000
18.90000 114.000
18.92000 149.000
18.94000 162.000
18.96000 160.000
18.98000 177.000
19.00000 165.000
19.02000 159.000
19.04000 181.000
19.06000 155.000
19.08000 189.000
19.10000 165.000
19.12000 176.000
19.14000 176.000
19.16000 156.000
19.18000 152.000
19.20000 143.000
19.22000 166.000
19.24000 134.000
19.26000 142.000
19.28000 133.000
19.30000 152.000
19.32000 159.000
19.34000 169.000
19.36000 143.000
19.38000 151.000
19.40000 147.000
19.42000 167.000
19.44000 172.000
19.46000 156.000
19.48000 152.000
19.50000 157.000
19.52000 193.000
19.54000 180.000
19.56000 164.000
19.58000 185.000
19.60000 146.000
19.62000 147.000
19.64000 172.000
19.66000 144.000
19.68000 158.000
19.70000 152.000
19.72000 161.000
19.74000 155.000
19.76000 132.000
19.78000 132.000
19.80000 157.000
19.82000 125.000
19.84000 132.000
19.86000 130.000
19.88000 144.000
19.90000 146.000
19.92000 145.000
19.94000 122.000
19.96000 153.000
19.98000 156.000
20.00000 142.000
20.02000 156.000
20.04000 122.000
20.06000 126.000
20.08000 128.000
20.10000 149.000
20.12000 143.000
20.14000 144.000
20.16000 164.000
20.18000 148.000
20.20000 143.000
20.22000 167.000
20.24000 164.000
20.26000 155.000
20.28000 159.000
20.30000 155.000
20.32000 159.000
20.34000 170.000
20.36000 151.000
20.38000 179.000
20.40000 169.000
20.42000 163.000
20.44000 147.000
20.46000 151.000
20.48000 146.000
20.50000 150.000
20.52000 127.000
20.54000 168.000
20.56000 162.000
20.58000 139.000
20.60000 167.000
20.62000 176.000
20.64000 163.000
20.66000 194.000
20.68000 185.000
20.70000 206.000
20.72000 181.000
20.74000 189.000
20.76000 192.000
20.78000 185.000
20.80000 213.000
20.82000 176.000
20.84000 211.000
20.86000 205.000
20.88000 214.000
20.90000 215.000
20.92000 236.000
20.94000 210.000
20.96000 202.000
20.98000 220.000
21.00000 214.000
21.02000 213.000
21.04000 207.000
21.06000 233.000
21.08000 256.000
21.10000 277.000
21.12000 287.000
21.14000 271.000
21.16000 336.000
21.18000 318.000
21.20000 400.000
21.22000 366.000
21.24000 372.000
21.26000 339.000
21.28000 314.000
21.30000 274.000
21.32000 255.000
21.34000 247.000
21.36000 208.000
21.38000 212.000
21.40000 168.000
21.42000 217.000
21.44000 180.000
21.46000 184.000
21.48000 185.000
21.50000 175.000
21.52000 207.000
21.54000 172.000
21.56000 170.000
21.58000 179.000
21.60000 172.000
21.62000 178.000
21.64000 172.000
21.66000 217.000
21.68000 193.000
21.70000 193.000
21.72000 217.000
21.74000 226.000
21.76000 247.000
21.78000 215.000
21.80000 239.000
21.82000 270.000
21.84000 295.000
21.86000 302.000
21.88000 323.000
21.90000 406.000
21.92000 441.000
21.94000 492.000
21.96000 505.000
21.98000 575.000
22.00000 657.000
22.02000 733.000
22.04000 819.000
22.06000 850.000
22.08000 901.000
22.10000 1060.000
22.12000 1087.000
22.14000 1169.000
22.16000 1278.000
22.18000 1333.000
22.20000 1584.000
22.22000 1733.000
22.24000 1902.000
22.26000 2043.000
22.28000 1967.000
22.30000 1773.000
22.32000 1566.000
22.34000 1327.000
22.36000 957.000
22.38000 765.000
22.40000 604.000
22.42000 452.000
22.44000 404.000
22.46000 368.000
22.48000 294.000
22.50000 246.000
22.52000 231.000
22.54000 202.000
22.56000 194.000
22.58000 207.000
22.60000 189.000
22.62000 160.000
22.64000 186.000
22.66000 191.000
22.68000 160.000
22.70000 160.000
22.72000 186.000
22.74000 172.000
22.76000 178.000
22.78000 153.000
22.80000 153.000
22.82000 158.000
22.84000 160.000
22.86000 183.000
22.88000 166.000
22.90000 165.000
22.92000 163.000
22.94000 159.000
22.96000 187.000
22.98000 188.000
23.00000 186.000
23.02000 161.000
23.04000 171.000
23.06000 193.000
23.08000 183.000
23.10000 153.000
23.12000 178.000
23.14000 169.000
23.16000 157.000
23.18000 161.000
23.20000 188.000
23.22000 161.000
23.24000 168.000
23.26000 180.000
23.28000 146.000
23.30000 162.000
23.32000 138.000
23.34000 162.000
23.36000 165.000
23.38000 179.000
23.40000 173.000
23.42000 161.000
23.44000 162.000
23.46000 159.000
23.48000 171.000
23.50000 188.000
23.52000 197.000
23.54000 169.000
23.56000 198.000
23.58000 226.000
23.60000 216.000
23.62000 230.000
23.64000 221.000
23.66000 242.000
23.68000 227.000
23.70000 260.000
23.72000 267.000
23.74000 292.000
23.76000 297.000
23.78000 260.000
23.80000 251.000
23.82000 242.000
23.84000 217.000
23.86000 239.000
23.88000 212.000
23.90000 198.000
23.92000 208.000
23.94000 200.000
23.96000 205.000
23.98000 200.000
24.00000 201.000
24.02000 224.000
24.04000 192.000
24.06000 208.000
24.08000 208.000
24.10000 228.000
24.12000 240.000
24.14000 230.000
24.16000 221.000
24.18000 261.000
24.20000 284.000
24.22000 241.000
24.24000 262.000
24.26000 326.000
24.28000 324.000
24.30000 288.000
24.32000 292.000
24.34000 289.000
24.36000 281.000
24.38000 259.000
24.40000 262.000
24.42000 206.000
24.44000 218.000
24.46000 230.000
24.48000 228.000
24.50000 217.000
24.52000 211.000
24.54000 210.000
24.56000 225.000
24.58000 183.000
24.60000 190.000
24.62000 205.000
24.64000 218.000
24.66000 208.000
24.68000 198.000
24.70000 219.000
24.72000 214.000
24.74000 203.000
24.76000 207.000
24.78000 195.000
24.80000 206.000
24.82000 204.000
24.84000 230.000
24.86000 199.000
24.88000 197.000
24.90000 185.000
24.92000 169.000
24.94000 215.000
24.96000 204.000
24.98000 190.000
25.00000 172.000
25.02000 162.000
25.04000 178.000
25.06000 215.000
25.08000 159.000
25.10000 194.000
25.12000 182.000
25.14000 226.000
25.16000 189.000
25.18000 230.000
25.20000 206.000
25.22000 191.000
25.24000 203.000
25.26000 216.000
25.28000 214.000
25.30000 237.000
25.32000 230.000
25.34000 214.000
25.36000 231.000
25.38000 232.000
25.40000 212.000
25.42000 248.000
25.44000 295.000
25.46000 296.000
25.48000 257.000
25.50000 254.000
25.52000 266.000
25.54000 265.000
25.56000 281.000
25.58000 257.000
25.60000 257.000
25.62000 226.000
25.64000 240.000
25.66000 236.000
25.68000 228.000
25.70000 225.000
25.72000 202.000
25.74000 183.000
25.76000 219.000
25.78000 212.000
25.80000 209.000
25.82000 206.000
25.84000 213.000
25.86000 203.000
25.88000 221.000
25.90000 229.000
25.92000 236.000
25.94000 218.000
25.96000 249.000
25.98000 249.000
26.00000 255.000
26.02000 300.000
26.04000 308.000
26.06000 348.000
26.08000 362.000
26.10000 406.000
26.12000 423.000
26.14000 495.000
26.16000 512.000
26.18000 569.000
26.20000 589.000
26.22000 617.000
26.24000 642.000
26.26000 581.000
26.28000 575.000
26.30000 507.000
26.32000 428.000
26.34000 398.000
26.36000 346.000
26.38000 276.000
26.40000 254.000
26.42000 269.000
26.44000 235.000
26.46000 220.000
26.48000 185.000
26.50000 224.000
26.52000 201.000
26.54000 219.000
26.56000 189.000
26.58000 213.000
26.60000 240.000
26.62000 261.000
26.64000 240.000
26.66000 234.000
26.68000 230.000
26.70000 207.000
26.72000 215.000
26.74000 227.000
26.76000 238.000
26.78000 218.000
26.80000 225.000
26.82000 201.000
26.84000 212.000
26.86000 217.000
26.88000 209.000
26.90000 207.000
26.92000 208.000
26.94000 231.000
26.96000 236.000
26.98000 257.000
27.00000 239.000
27.02000 238.000
27.04000 274.000
27.06000 234.000
27.08000 244.000
27.10000 289.000
27.12000 320.000
27.14000 333.000
27.16000 326.000
27.18000 358.000
27.20000 401.000
27.22000 447.000
27.24000 452.000
27.26000 563.000
27.28000 637.000
27.30000 707.000
27.32000 754.000
27.34000 926.000
27.36000 951.000
27.38000 929.000
27.40000 809.000
27.42000 790.000
27.44000 647.000
27.46000 535.000
27.48000 459.000
27.50000 397.000
27.52000 347.000
27.54000 290.000
27.56000 280.000
27.58000 267.000
27.60000 247.000
27.62000 231.000
27.64000 240.000
27.66000 209.000
27.68000 236.000
27.70000 236.000
27.72000 194.000
27.74000 216.000
27.76000 212.000
27.78000 195.000
27.80000 210.000
27.82000 206.000
27.84000 180.000
27.86000 196.000
27.88000 170.000
27.90000 182.000
27.92000 187.000
27.94000 166.000
27.96000 185.000
27.98000 208.000
28.00000 182.000
28.02000 172.000
28.04000 210.000
28.06000 226.000
28.08000 218.000
28.10000 222.000
28.12000 201.000
28.14000 192.000
28.16000 184.000
28.18000 225.000
28.20000 212.000
28.22000 205.000
28.24000 198.000
28.26000 211.000
28.28000 177.000
28.30000 194.000
28.32000 171.000
28.34000 195.000
28.36000 153.000
28.38000 195.000
28.40000 180.000
28.42000 199.000
28.44000 210.000
28.46000 186.000
28.48000 208.000
28.50000 193.000
28.52000 208.000
28.54000 194.000
28.56000 210.000
28.58000 210.000
28.60000 212.000
28.62000 193.000
28.64000 206.000
28.66000 182.000
28.68000 192.000
28.70000 181.000
28.72000 183.000
28.74000 180.000
28.76000 175.000
28.78000 193.000
28.80000 176.000
28.82000 187.000
28.84000 184.000
28.86000 205.000
28.88000 180.000
28.90000 208.000
28.92000 191.000
28.94000 184.000
28.96000 206.000
28.98000 194.000
29.00000 187.000
29.02000 194.000
29.04000 182.000
29.06000 179.000
29.08000 199.000
29.10000 189.000
29.12000 199.000
29.14000 200.000
29.16000 219.000
29.18000 232.000
29.20000 222.000
29.22000 247.000
29.24000 265.000
29.26000 277.000
29.28000 347.000
29.30000 323.000
29.32000 363.000
29.34000 360.000
29.36000 332.000
29.38000 345.000
29.40000 349.000
29.42000 363.000
29.44000 337.000
29.46000 351.000
29.48000 341.000
29.50000 362.000
29.52000 409.000
29.54000 445.000
29.56000 460.000
29.58000 514.000
29.60000 517.000
29.62000 599.000
29.64000 616.000
29.66000 654.000
29.68000 622.000
29.70000 558.000
29.72000 527.000
29.74000 473.000
29.76000 438.000
29.78000 367.000
29.80000 322.000
29.82000 301.000
29.84000 260.000
29.86000 266.000
29.88000 248.000
29.90000 249.000
29.92000 232.000
29.94000 215.000
29.96000 210.000
29.98000 183.000
30.00000 198.000
30.02000 175.000
30.04000 214.000
30.06000 210.000
30.08000 196.000
30.10000 183.000
30.12000 207.000
30.14000 198.000
30.16000 213.000
30.18000 248.000
30.20000 206.000
30.22000 227.000
30.24000 212.000
30.26000 236.000
30.28000 197.000
30.30000 219.000
30.32000 206.000
30.34000 204.000
30.36000 212.000
30.38000 176.000
30.40000 193.000
30.42000 204.000
30.44000 208.000
30.46000 180.000
30.48000 226.000
30.50000 218.000
30.52000 212.000
30.54000 229.000
30.56000 253.000
30.58000 216.000
30.60000 268.000
30.62000 244.000
30.64000 305.000
30.66000 356.000
30.68000 352.000
30.70000 337.000
30.72000 429.000
30.74000 433.000
30.76000 526.000
30.78000 519.000
30.80000 586.000
30.82000 603.000
30.84000 539.000
30.86000 523.000
30.88000 503.000
30.90000 455.000
30.92000 387.000
30.94000 347.000
30.96000 321.000
30.98000 276.000
31.00000 267.000
31.02000 262.000
31.04000 287.000
31.06000 295.000
31.08000 279.000
31.10000 292.000
31.12000 304.000
31.14000 336.000
31.16000 364.000
31.18000 358.000
31.20000 429.000
31.22000 464.000
31.24000 582.000
31.26000 567.000
31.28000 604.000
31.30000 677.000
31.32000 663.000
31.34000 766.000
31.36000 622.000
31.38000 629.000
31.40000 650.000
31.42000 658.000
31.44000 663.000
31.46000 607.000
31.48000 651.000
31.50000 712.000
31.52000 749.000
31.54000 890.000
31.56000 925.000
31.58000 1131.000
31.60000 1270.000
31.62000 1460.000
31.64000 1799.000
31.66000 2016.000
31.68000 2150.000
31.70000 2373.000
31.72000 2315.000
31.74000 2060.000
31.76000 1906.000
31.78000 1659.000
31.80000 1401.000
31.82000 1142.000
31.84000 914.000
31.86000 758.000
31.88000 643.000
31.90000 492.000
31.92000 530.000
31.94000 462.000
31.96000 446.000
31.98000 458.000
32.00000 446.000
32.02000 502.000
32.04000 492.000
32.06000 480.000
32.08000 501.000
32.10000 447.000
32.12000 413.000
32.14000 399.000
32.16000 314.000
32.18000 343.000
32.20000 298.000
32.22000 292.000
32.24000 234.000
32.26000 265.000
32.28000 233.000
32.30000 220.000
32.32000 205.000
32.34000 200.000
32.36000 212.000
32.38000 195.000
32.40000 206.000
32.42000 207.000
32.44000 216.000
32.46000 200.000
32.48000 208.000
32.50000 202.000
32.52000 226.000
32.54000 235.000
32.56000 219.000
32.58000 209.000
32.60000 186.000
32.62000 187.000
32.64000 197.000
32.66000 170.000
32.68000 177.000
32.70000 157.000
32.72000 168.000
32.74000 192.000
32.76000 168.000
32.78000 172.000
32.80000 144.000
32.82000 147.000
32.84000 160.000
32.86000 145.000
32.88000 171.000
32.90000 167.000
32.92000 146.000
32.94000 161.000
32.96000 142.000
32.98000 161.000
33.00000 153.000
33.02000 161.000
33.04000 153.000
33.06000 147.000
33.08000 136.000
33.10000 152.000
33.12000 131.000
33.14000 140.000
33.16000 149.000
33.18000 158.000
33.20000 148.000
33.22000 160.000
33.24000 135.000
33.26000 164.000
33.28000 140.000
33.30000 166.000
33.32000 148.000
33.34000 146.000
33.36000 180.000
33.38000 160.000
33.40000 185.000
33.42000 187.000
33.44000 168.000
33.46000 178.000
33.48000 158.000
33.50000 210.000
33.52000 176.000
33.54000 178.000
33.56000 182.000
33.58000 180.000
33.60000 147.000
33.62000 154.000
33.64000 158.000
33.66000 171.000
33.68000 172.000
33.70000 193.000
33.72000 175.000
33.74000 210.000
33.76000 210.000
33.78000 235.000
33.80000 254.000
33.82000 275.000
33.84000 285.000
33.86000 268.000
33.88000 333.000
33.90000 342.000
33.92000 346.000
33.94000 393.000
33.96000 374.000
33.98000 426.000
34.00000 421.000
34.02000 455.000
34.04000 406.000
34.06000 420.000
34.08000 388.000
34.10000 400.000
34.12000 390.000
34.14000 379.000
34.16000 313.000
34.18000 310.000
34.20000 293.000
34.22000 260.000
34.24000 252.000
34.26000 242.000
34.28000 219.000
34.30000 195.000
34.32000 215.000
34.34000 175.000
34.36000 179.000
34.38000 158.000
34.40000 167.000
34.42000 173.000
34.44000 172.000
34.46000 173.000
34.48000 177.000
34.50000 191.000
34.52000 202.000
34.54000 200.000
34.56000 182.000
34.58000 205.000
34.60000 220.000
34.62000 227.000
34.64000 221.000
34.66000 219.000
34.68000 215.000
34.70000 202.000
34.72000 183.000
34.74000 152.000
34.76000 184.000
34.78000 182.000
34.80000 175.000
34.82000 167.000
34.84000 146.000
34.86000 177.000
34.88000 176.000
34.90000 170.000
34.92000 163.000
34.94000 171.000
34.96000 164.000
34.98000 153.000
35.00000 186.000
35.02000 173.000
35.04000 153.000
35.06000 158.000
35.08000 169.000
35.10000 186.000
35.12000 154.000
35.14000 177.000
35.16000 160.000
35.18000 191.000
35.20000 194.000
35.22000 173.000
35.24000 146.000
35.26000 164.000
35.28000 174.000
35.30000 182.000
35.32000 150.000
35.34000 213.000
35.36000 191.000
35.38000 207.000
35.40000 221.000
35.42000 229.000
35.44000 221.000
35.46000 304.000
35.48000 289.000
35.50000 329.000
35.52000 385.000
35.54000 392.000
35.56000 443.000
35.58000 404.000
35.60000 359.000
35.62000 355.000
35.64000 301.000
35.66000 315.000
35.68000 257.000
35.70000 242.000
35.72000 212.000
35.74000 199.000
35.76000 174.000
35.78000 172.000
35.80000 137.000
35.82000 137.000
35.84000 150.000
35.86000 129.000
35.88000 132.000
35.90000 134.000
35.92000 121.000
35.94000 120.000
35.96000 135.000
35.98000 126.000
36.00000 133.000
36.02000 133.000
36.04000 114.000
36.06000 117.000
36.08000 116.000
36.10000 145.000
36.12000 99.000
36.14000 102.000
36.16000 117.000
36.18000 122.000
36.20000 127.000
36.22000 128.000
36.24000 122.000
36.26000 125.000
36.28000 130.000
36.30000 130.000
36.32000 128.000
36.34000 146.000
36.36000 95.000
36.38000 121.000
36.40000 125.000
36.42000 124.000
36.44000 120.000
36.46000 125.000
36.48000 135.000
36.50000 133.000
36.52000 114.000
36.54000 102.000
36.56000 130.000
36.58000 133.000
36.60000 150.000
36.62000 128.000
36.64000 133.000
36.66000 131.000
36.68000 137.000
36.70000 134.000
36.72000 125.000
36.74000 133.000
36.76000 133.000
36.78000 125.000
36.80000 127.000
36.82000 113.000
36.84000 126.000
36.86000 130.000
36.88000 113.000
36.90000 136.000
36.92000 120.000
36.94000 117.000
36.96000 113.000
36.98000 107.000
37.00000 128.000
37.02000 119.000
37.04000 118.000
37.06000 113.000
37.08000 119.000
37.10000 127.000
37.12000 105.000
37.14000 95.000
37.16000 115.000
37.18000 116.000
37.20000 123.000
37.22000 110.000
37.24000 126.000
37.26000 115.000
37.28000 122.000
37.30000 140.000
37.32000 136.000
37.34000 141.000
37.36000 135.000
37.38000 147.000
37.40000 130.000
37.42000 132.000
37.44000 136.000
37.46000 118.000
37.48000 116.000
37.50000 101.000
37.52000 124.000
37.54000 121.000
37.56000 129.000
37.58000 117.000
37.60000 124.000
37.62000 120.000
37.64000 119.000
37.66000 119.000
37.68000 117.000
37.70000 125.000
37.72000 144.000
37.74000 136.000
37.76000 124.000
37.78000 152.000
37.80000 130.000
37.82000 122.000
37.84000 122.000
37.86000 132.000
37.88000 121.000
37.90000 125.000
37.92000 140.000
37.94000 121.000
37.96000 126.000
37.98000 133.000
38.00000 120.000
38.02000 128.000
38.04000 149.000
38.06000 147.000
38.08000 154.000
38.10000 157.000
38.12000 169.000
38.14000 177.000
38.16000 196.000
38.18000 220.000
38.20000 226.000
38.22000 208.000
38.24000 201.000
38.26000 235.000
38.28000 248.000
38.30000 190.000
38.32000 197.000
38.34000 198.000
38.36000 186.000
38.38000 171.000
38.40000 161.000
38.42000 180.000
38.44000 147.000
38.46000 144.000
38.48000 155.000
38.50000 164.000
38.52000 159.000
38.54000 177.000
38.56000 190.000
38.58000 183.000
38.60000 203.000
38.62000 237.000
38.64000 220.000
38.66000 242.000
38.68000 273.000
38.70000 288.000
38.72000 269.000
38.74000 318.000
38.76000 276.000
38.78000 302.000
38.80000 345.000
38.82000 339.000
38.84000 396.000
38.86000 361.000
38.88000 385.000
38.90000 454.000
38.92000 466.000
38.94000 548.000
38.96000 648.000
38.98000 783.000
39.00000 936.000
39.02000 1077.000
39.04000 1242.000
39.06000 1386.000
39.08000 1493.000
39.10000 1444.000
39.12000 1358.000
39.14000 1324.000
39.16000 1125.000
39.18000 1002.000
39.20000 892.000
39.22000 722.000
39.24000 630.000
39.26000 539.000
39.28000 408.000
39.30000 346.000
39.32000 312.000
39.34000 267.000
39.36000 240.000
39.38000 219.000
39.40000 204.000
39.42000 166.000
39.44000 148.000
39.46000 149.000
39.48000 149.000
39.50000 157.000
39.52000 146.000
39.54000 148.000
39.56000 149.000
39.58000 146.000
39.60000 163.000
39.62000 134.000
39.64000 176.000
39.66000 156.000
39.68000 166.000
39.70000 155.000
39.72000 179.000
39.74000 148.000
39.76000 125.000
39.78000 152.000
39.80000 131.000
39.82000 132.000
39.84000 116.000
39.86000 127.000
39.88000 110.000
39.90000 117.000
39.92000 101.000
39.94000 125.000
39.96000 99.000
39.98000 112.000
40.00000 110.000
40.02000 138.000
40.04000 114.000
40.06000 118.000
40.08000 114.000
40.10000 98.000
40.12000 102.000
40.14000 125.000
40.16000 111.000
40.18000 124.000
40.20000 117.000
40.22000 130.000
40.24000 128.000
40.26000 106.000
40.28000 136.000
40.30000 108.000
40.32000 137.000
40.34000 106.000
40.36000 127.000
40.38000 157.000
40.40000 136.000
40.42000 150.000
40.44000 132.000
40.46000 152.000
40.48000 153.000
40.50000 119.000
40.52000 122.000
40.54000 120.000
40.56000 122.000
40.58000 120.000
40.60000 150.000
40.62000 108.000
40.64000 127.000
40.66000 125.000
40.68000 115.000
40.70000 113.000
40.72000 126.000
40.74000 120.000
40.76000 116.000
40.78000 132.000
40.80000 121.000
40.82000 139.000
40.84000 134.000
40.86000 131.000
40.88000 144.000
40.90000 157.000
40.92000 153.000
40.94000 143.000
40.96000 123.000
40.98000 141.000
41.00000 121.000
41.02000 110.000
41.04000 125.000
41.06000 138.000
41.08000 119.000
41.10000 130.000
41.12000 120.000
41.14000 105.000
41.16000 121.000
41.18000 99.000
41.20000 105.000
41.22000 120.000
41.24000 98.000
41.26000 97.000
41.28000 97.000
41.30000 108.000
41.32000 111.000
41.34000 142.000
41.36000 108.000
41.38000 122.000
41.40000 135.000
41.42000 146.000
41.44000 136.000
41.46000 124.000
41.48000 130.000
41.50000 148.000
41.52000 158.000
41.54000 154.000
41.56000 133.000
41.58000 133.000
41.60000 139.000
41.62000 170.000
41.64000 152.000
41.66000 137.000
41.68000 122.000
41.70000 147.000
41.72000 138.000
41.74000 132.000
41.76000 132.000
41.78000 127.000
41.80000 106.000
41.82000 112.000
41.84000 124.000
41.86000 134.000
41.88000 118.000
41.90000 113.000
41.92000 115.000
41.94000 102.000
41.96000 130.000
41.98000 103.000
42.00000 128.000
42.02000 116.000
42.04000 132.000
42.06000 128.000
42.08000 126.000
42.10000 116.000
42.12000 125.000
42.14000 144.000
42.16000 128.000
42.18000 129.000
42.20000 114.000
42.22000 123.000
42.24000 103.000
42.26000 117.000
42.28000 114.000
42.30000 104.000
42.32000 125.000
42.34000 109.000
42.36000 106.000
42.38000 113.000
42.40000 99.000
42.42000 109.000
42.44000 124.000
42.46000 118.000
42.48000 117.000
42.50000 125.000
42.52000 125.000
42.54000 109.000
42.56000 95.000
42.58000 134.000
42.60000 112.000
42.62000 111.000
42.64000 129.000
42.66000 109.000
42.68000 104.000
42.70000 125.000
42.72000 102.000
42.74000 119.000
42.76000 122.000
42.78000 121.000
42.80000 136.000
42.82000 154.000
42.84000 172.000
42.86000 175.000
42.88000 192.000
42.90000 178.000
42.92000 190.000
42.94000 203.000
42.96000 185.000
42.98000 198.000
43.00000 209.000
43.02000 199.000
43.04000 208.000
43.06000 194.000
43.08000 196.000
43.10000 202.000
43.12000 201.000
43.14000 187.000
43.16000 197.000
43.18000 197.000
43.20000 190.000
43.22000 195.000
43.24000 226.000
43.26000 197.000
43.28000 188.000
43.30000 203.000
43.32000 209.000
43.34000 196.000
43.36000 178.000
43.38000 179.000
43.40000 186.000
43.42000 215.000
43.44000 160.000
43.46000 170.000
43.48000 195.000
43.50000 186.000
43.52000 179.000
43.54000 147.000
43.56000 144.000
43.58000 156.000
43.60000 129.000
43.62000 137.000
43.64000 126.000
43.66000 134.000
43.68000 114.000
43.70000 114.000
43.72000 124.000
43.74000 117.000
43.76000 118.000
43.78000 122.000
43.80000 115.000
43.82000 102.000
43.84000 141.000
43.86000 116.000
43.88000 118.000
43.90000 117.000
43.92000 118.000
43.94000 93.000
43.96000 109.000
43.98000 117.000
44.00000 117.000
44.02000 128.000
44.04000 109.000
44.06000 111.000
44.08000 108.000
44.10000 126.000
44.12000 113.000
44.14000 115.000
44.16000 136.000
44.18000 102.000
44.20000 112.000
44.22000 105.000
44.24000 117.000
44.26000 137.000
44.28000 125.000
44.30000 142.000
44.32000 114.000
44.34000 117.000
44.36000 104.000
44.38000 131.000
44.40000 134.000
44.42000 132.000
44.44000 137.000
44.46000 132.000
44.48000 146.000
44.50000 112.000
44.52000 133.000
44.54000 136.000
44.56000 150.000
44.58000 126.000
44.60000 125.000
44.62000 131.000
44.64000 134.000
44.66000 127.000
44.68000 135.000
44.70000 121.000
44.72000 111.000
44.74000 126.000
44.76000 128.000
44.78000 119.000
44.80000 123.000
44.82000 155.000
44.84000 158.000
44.86000 164.000
44.88000 171.000
44.90000 195.000
44.92000 182.000
44.94000 192.000
44.96000 231.000
44.98000 257.000
45.00000 295.000
45.02000 294.000
45.04000 274.000
45.06000 287.000
45.08000 267.000
45.10000 298.000
45.12000 284.000
45.14000 276.000
45.16000 283.000
45.18000 315.000
45.20000 265.000
45.22000 304.000
45.24000 292.000
45.26000 324.000
45.28000 345.000
45.30000 426.000
45.32000 472.000
45.34000 533.000
45.36000 706.000
45.38000 802.000
45.40000 975.000
45.42000 1059.000
45.44000 1154.000
45.46000 1120.000
45.48000 1096.000
45.50000 939.000
45.52000 894.000
45.54000 803.000
45.56000 750.000
45.58000 665.000
45.60000 594.000
45.62000 494.000
45.64000 394.000
45.66000 313.000
45.68000 263.000
45.70000 265.000
45.72000 203.000
45.74000 184.000
45.76000 193.000
45.78000 184.000
45.80000 166.000
45.82000 161.000
45.84000 146.000
45.86000 144.000
45.88000 160.000
45.90000 152.000
45.92000 155.000
45.94000 148.000
45.96000 144.000
45.98000 127.000
46.00000 114.000
46.02000 129.000
46.04000 132.000
46.06000 132.000
46.08000 122.000
46.10000 115.000
46.12000 141.000
46.14000 120.000
46.16000 109.000
46.18000 101.000
46.20000 127.000
46.22000 125.000
46.24000 113.000
46.26000 134.000
46.28000 118.000
46.30000 114.000
46.32000 128.000
46.34000 124.000
46.36000 115.000
46.38000 123.000
46.40000 133.000
46.42000 104.000
46.44000 108.000
46.46000 125.000
46.48000 124.000
46.50000 117.000
46.52000 114.000
46.54000 138.000
46.56000 126.000
46.58000 136.000
46.60000 138.000
46.62000 145.000
46.64000 163.000
46.66000 169.000
46.68000 165.000
46.70000 167.000
46.72000 202.000
46.74000 163.000
46.76000 204.000
46.78000 203.000
46.80000 200.000
46.82000 227.000
46.84000 268.000
46.86000 237.000
46.88000 252.000
46.90000 240.000
46.92000 224.000
46.94000 215.000
46.96000 222.000
46.98000 207.000
47.00000 206.000
47.02000 195.000
47.04000 204.000
47.06000 171.000
47.08000 186.000
47.10000 172.000
47.12000 148.000
47.14000 131.000
47.16000 123.000
47.18000 124.000
47.20000 127.000
47.22000 127.000
47.24000 144.000
47.26000 136.000
47.28000 105.000
47.30000 108.000
47.32000 120.000
47.34000 101.000
47.36000 116.000
47.38000 119.000
47.40000 113.000
47.42000 120.000
47.44000 122.000
47.46000 112.000
47.48000 131.000
47.50000 108.000
47.52000 122.000
47.54000 148.000
47.56000 147.000
47.58000 138.000
47.60000 157.000
47.62000 158.000
47.64000 150.000
47.66000 158.000
47.68000 158.000
47.70000 155.000
47.72000 167.000
47.74000 161.000
47.76000 185.000
47.78000 151.000
47.80000 176.000
47.82000 148.000
47.84000 152.000
47.86000 171.000
47.88000 173.000
47.90000 146.000
47.92000 147.000
47.94000 131.000
47.96000 143.000
47.98000 135.000
48.00000 129.000
48.02000 147.000
48.04000 135.000
48.06000 126.000
48.08000 136.000
48.10000 123.000
48.12000 130.000
48.14000 128.000
48.16000 144.000
48.18000 120.000
48.20000 142.000
48.22000 141.000
48.24000 159.000
48.26000 159.000
48.28000 168.000
48.30000 192.000
48.32000 197.000
48.34000 220.000
48.36000 215.000
48.38000 223.000
48.40000 236.000
48.42000 244.000
48.44000 206.000
48.46000 187.000
48.48000 209.000
48.50000 223.000
48.52000 217.000
48.54000 193.000
48.56000 180.000
48.58000 165.000
48.60000 167.000
48.62000 179.000
48.64000 146.000
48.66000 150.000
48.68000 155.000
48.70000 153.000
48.72000 142.000
48.74000 143.000
48.76000 125.000
48.78000 155.000
48.80000 156.000
48.82000 137.000
48.84000 143.000
48.86000 125.000
48.88000 139.000
48.90000 125.000
48.92000 133.000
48.94000 130.000
48.96000 130.000
48.98000 135.000
49.00000 125.000
49.02000 125.000
49.04000 135.000
49.06000 118.000
49.08000 111.000
49.10000 116.000
49.12000 120.000
49.14000 122.000
49.16000 95.000
49.18000 108.000
49.20000 114.000
49.22000 113.000
49.24000 120.000
49.26000 126.000
49.28000 91.000
49.30000 102.000
49.32000 138.000
49.34000 118.000
49.36000 121.000
49.38000 119.000
49.40000 123.000
49.42000 104.000
49.44000 110.000
49.46000 129.000
49.48000 115.000
49.50000 147.000
49.52000 122.000
49.54000 130.000
49.56000 133.000
49.58000 159.000
49.60000 147.000
49.62000 150.000
49.64000 135.000
49.66000 154.000
49.68000 145.000
49.70000 137.000
49.72000 140.000
49.74000 120.000
49.76000 143.000
49.78000 122.000
49.80000 133.000
49.82000 113.000
49.84000 130.000
49.86000 109.000
49.88000 114.000
49.90000 103.000
49.92000 111.000
49.94000 112.000
49.96000 108.000
49.98000 120.000
50.00000 117.000
50.02000 106.000
50.04000 95.000
50.06000 119.000
50.08000 110.000
50.10000 105.000
50.12000 97.000
50.14000 99.000
50.16000 114.000
50.18000 124.000
50.20000 130.000
50.22000 115.000
50.24000 125.000
50.26000 128.000
50.28000 118.000
50.30000 94.000
50.32000 114.000
50.34000 110.000
50.36000 122.000
50.38000 124.000
50.40000 117.000
50.42000 117.000
50.44000 126.000
50.46000 122.000
50.48000 113.000
50.50000 120.000
50.52000 111.000
50.54000 105.000
50.56000 115.000
50.58000 99.000
50.60000 98.000
50.62000 119.000
50.64000 156.000
50.66000 139.000
50.68000 144.000
50.70000 141.000
50.72000 153.000
50.74000 162.000
50.76000 164.000
50.78000 150.000
50.80000 144.000
50.82000 148.000
50.84000 149.000
50.86000 135.000
50.88000 175.000
50.90000 177.000
50.92000 208.000
50.94000 217.000
50.96000 244.000
50.98000 260.000
51.00000 291.000
51.02000 289.000
51.04000 322.000
51.06000 347.000
51.08000 372.000
51.10000 399.000
51.12000 404.000
51.14000 458.000
51.16000 423.000
51.18000 424.000
51.20000 387.000
51.22000 367.000
51.24000 328.000
51.26000 297.000
51.28000 302.000
51.30000 292.000
51.32000 233.000
51.34000 205.000
51.36000 210.000
51.38000 156.000
51.40000 145.000
51.42000 141.000
51.44000 159.000
51.46000 122.000
51.48000 114.000
51.50000 121.000
51.52000 107.000
51.54000 120.000
51.56000 109.000
51.58000 114.000
51.60000 113.000
51.62000 110.000
51.64000 116.000
51.66000 105.000
51.68000 100.000
51.70000 95.000
51.72000 89.000
51.74000 104.000
51.76000 99.000
51.78000 130.000
51.80000 106.000
51.82000 119.000
51.84000 109.000
51.86000 100.000
51.88000 110.000
51.90000 118.000
51.92000 118.000
51.94000 107.000
51.96000 105.000
51.98000 111.000
52.00000 122.000
52.02000 123.000
52.04000 120.000
52.06000 128.000
52.08000 105.000
52.10000 110.000
52.12000 145.000
52.14000 100.000
52.16000 104.000
52.18000 115.000
52.20000 110.000
52.22000 116.000
52.24000 96.000
52.26000 129.000
52.28000 129.000
52.30000 114.000
52.32000 103.000
52.34000 107.000
52.36000 110.000
52.38000 137.000
52.40000 98.000
52.42000 109.000
52.44000 102.000
52.46000 130.000
52.48000 123.000
52.50000 128.000
52.52000 118.000
52.54000 110.000
52.56000 127.000
52.58000 122.000
52.60000 98.000
52.62000 102.000
52.64000 108.000
52.66000 106.000
52.68000 96.000
52.70000 93.000
52.72000 82.000
52.74000 104.000
52.76000 98.000
52.78000 83.000
52.80000 94.000
52.82000 102.000
52.84000 87.000
52.86000 113.000
52.88000 84.000
52.90000 110.000
52.92000 98.000
52.94000 101.000
52.96000 113.000
52.98000 101.000
53.00000 112.000
53.02000 93.000
53.04000 111.000
53.06000 98.000
53.08000 106.000
53.10000 118.000
53.12000 128.000
53.14000 127.000
53.16000 110.000
53.18000 117.000
53.20000 134.000
53.22000 129.000
53.24000 122.000
53.26000 126.000
53.28000 117.000
53.30000 124.000
53.32000 129.000
53.34000 114.000
53.36000 133.000
53.38000 106.000
53.40000 95.000
53.42000 126.000
53.44000 114.000
53.46000 117.000
53.48000 120.000
53.50000 88.000
53.52000 109.000
53.54000 95.000
53.56000 84.000
53.58000 99.000
53.60000 111.000
53.62000 92.000
53.64000 125.000
53.66000 107.000
53.68000 123.000
53.70000 123.000
53.72000 142.000
53.74000 118.000
53.76000 146.000
53.78000 167.000
53.80000 171.000
53.82000 185.000
53.84000 176.000
53.86000 209.000
53.88000 221.000
53.90000 192.000
53.92000 188.000
53.94000 168.000
53.96000 187.000
53.98000 146.000
54.00000 148.000
54.02000 164.000
54.04000 157.000
54.06000 155.000
54.08000 128.000
54.10000 130.000
54.12000 133.000
54.14000 99.000
54.16000 117.000
54.18000 111.000
54.20000 113.000
54.22000 99.000
54.24000 115.000
54.26000 102.000
54.28000 95.000
54.30000 98.000
54.32000 105.000
54.34000 108.000
54.36000 95.000
54.38000 109.000
54.40000 103.000
54.42000 112.000
54.44000 115.000
54.46000 101.000
54.48000 119.000
54.50000 94.000
54.52000 109.000
54.54000 102.000
54.56000 102.000
54.58000 99.000
54.60000 102.000
54.62000 82.000
54.64000 104.000
54.66000 103.000
54.68000 112.000
54.70000 111.000
54.72000 119.000
54.74000 107.000
54.76000 117.000
54.78000 116.000
54.80000 115.000
54.82000 133.000
54.84000 121.000
54.86000 134.000
54.88000 135.000
54.90000 158.000
54.92000 148.000
54.94000 136.000
54.96000 147.000
54.98000 136.000
55.00000 125.000
55.02000 137.000
55.04000 145.000
55.06000 127.000
55.08000 140.000
55.10000 114.000
55.12000 110.000
55.14000 133.000
55.16000 120.000
55.18000 120.000
55.20000 116.000
55.22000 116.000
55.24000 111.000
55.26000 105.000
55.28000 121.000
55.30000 105.000
55.32000 94.000
55.34000 112.000
55.36000 101.000
55.38000 109.000
55.40000 105.000
55.42000 123.000
55.44000 103.000
55.46000 97.000
55.48000 119.000
55.50000 130.000
55.52000 128.000
55.54000 123.000
55.56000 141.000
55.58000 128.000
55.60000 119.000
55.62000 131.000
55.64000 126.000
55.66000 108.000
55.68000 117.000
55.70000 129.000
55.72000 118.000
55.74000 114.000
55.76000 111.000
55.78000 134.000
55.80000 150.000
55.82000 131.000
55.84000 133.000
55.86000 107.000
55.88000 174.000
55.90000 148.000
55.92000 151.000
55.94000 158.000
55.96000 125.000
55.98000 148.000
56.00000 122.000
56.02000 140.000
56.04000 156.000
56.06000 126.000
56.08000 144.000
56.10000 142.000
56.12000 132.000
56.14000 108.000
56.16000 141.000
56.18000 143.000
56.20000 165.000
56.22000 166.000
56.24000 153.000
56.26000 149.000
56.28000 153.000
56.30000 161.000
56.32000 216.000
56.34000 204.000
56.36000 219.000
56.38000 229.000
56.40000 291.000
56.42000 322.000
56.44000 311.000
56.46000 329.000
56.48000 314.000
56.50000 346.000
56.52000 305.000
56.54000 270.000
56.56000 287.000
56.58000 253.000
56.60000 253.000
56.62000 268.000
56.64000 220.000
56.66000 200.000
56.68000 197.000
56.70000 173.000
56.72000 162.000
56.74000 146.000
56.76000 156.000
56.78000 131.000
56.80000 127.000
56.82000 132.000
56.84000 117.000
56.86000 119.000
56.88000 120.000
56.90000 151.000
56.92000 146.000
56.94000 124.000
56.96000 134.000
56.98000 147.000
57.00000 139.000
57.02000 132.000
57.04000 146.000
57.06000 128.000
57.08000 160.000
57.10000 150.000
57.12000 153.000
57.14000 141.000
57.16000 137.000
57.18000 137.000
57.20000 136.000
57.22000 117.000
57.24000 124.000
57.26000 135.000
57.28000 117.000
57.30000 103.000
57.32000 129.000
57.34000 117.000
57.36000 109.000
57.38000 113.000
57.40000 109.000
57.42000 103.000
57.44000 91.000
57.46000 122.000
57.48000 108.000
57.50000 92.000
57.52000 106.000
57.54000 100.000
57.56000 112.000
57.58000 106.000
57.60000 105.000
57.62000 91.000
57.64000 101.000
57.66000 109.000
57.68000 105.000
57.70000 94.000
57.72000 102.000
57.74000 92.000
57.76000 111.000
57.78000 107.000
57.80000 111.000
57.82000 103.000
57.84000 115.000
57.86000 108.000
57.88000 85.000
57.90000 127.000
57.92000 110.000
57.94000 118.000
57.96000 117.000
57.98000 109.000
58.00000 117.000
58.02000 107.000
58.04000 119.000
58.06000 105.000
58.08000 136.000
58.10000 125.000
58.12000 114.000
58.14000 110.000
58.16000 107.000
58.18000 121.000
58.20000 113.000
58.22000 115.000
58.24000 121.000
58.26000 122.000
58.28000 134.000
58.30000 97.000
58.32000 122.000
58.34000 139.000
58.36000 126.000
58.38000 111.000
58.40000 115.000
58.42000 146.000
58.44000 105.000
58.46000 121.000
58.48000 101.000
58.50000 119.000
58.52000 122.000
58.54000 128.000
58.56000 103.000
58.58000 116.000
58.60000 95.000
58.62000 82.000
58.64000 96.000
58.66000 108.000
58.68000 106.000
58.70000 89.000
58.72000 115.000
58.74000 89.000
58.76000 101.000
58.78000 113.000
58.80000 92.000
58.82000 96.000
58.84000 106.000
58.86000 117.000
58.88000 116.000
58.90000 124.000
58.92000 114.000
58.94000 132.000
58.96000 135.000
58.98000 132.000
59.00000 134.000
59.02000 134.000
59.04000 130.000
59.06000 127.000
59.08000 109.000
59.10000 122.000
59.12000 128.000
59.14000 149.000
59.16000 128.000
59.18000 128.000
59.20000 126.000
59.22000 126.000
59.24000 121.000
59.26000 98.000
59.28000 135.000
59.30000 120.000
59.32000 94.000
59.34000 103.000
59.36000 109.000
59.38000 105.000
59.40000 100.000
59.42000 123.000
59.44000 97.000
59.46000 103.000
59.48000 75.000
59.50000 99.000
59.52000 91.000
59.54000 108.000
59.56000 87.000
59.58000 110.000
59.60000 131.000
59.62000 113.000
59.64000 76.000
59.66000 98.000
59.68000 115.000
59.70000 96.000
59.72000 103.000
59.74000 105.000
59.76000 97.000
59.78000 125.000
59.80000 136.000
59.82000 112.000
59.84000 125.000
59.86000 100.000
59.88000 128.000
59.90000 106.000
59.92000 144.000
59.94000 124.000
59.96000 121.000
