5.00000 190.000
5.04000 223.000
5.08000 202.000
5.12000 189.000
5.16000 197.000
5.20000 212.000
5.24000 174.000
5.28000 193.000
5.32000 196.000
5.36000 190.000
5.40000 202.000
5.44000 174.000
5.48000 191.000
5.52000 173.000
5.56000 159.000
5.60000 184.000
5.64000 183.000
5.68000 183.000
5.72000 180.000
5.76000 166.000
5.80000 169.000
5.84000 149.000
5.88000 172.000
5.92000 166.000
5.96000 171.000
6.00000 185.000
6.04000 158.000
6.08000 162.000
6.12000 149.000
6.16000 141.000
6.20000 169.000
6.24000 151.000
6.28000 170.000
6.32000 145.000
6.36000 162.000
6.40000 153.000
6.44000 161.000
6.48000 168.000
6.52000 144.000
6.56000 146.000
6.60000 136.000
6.64000 174.000
6.68000 139.000
6.72000 145.000
6.76000 164.000
6.80000 120.000
6.84000 148.000
6.88000 148.000
6.92000 166.000
6.96000 136.000
7.00000 135.000
7.04000 135.000
7.08000 148.000
7.12000 146.000
7.16000 137.000
7.20000 146.000
7.24000 164.000
7.28000 133.000
7.32000 153.000
7.36000 135.000
7.40000 161.000
7.44000 150.000
7.48000 129.000
7.52000 151.000
7.56000 145.000
7.60000 133.000
7.64000 140.000
7.68000 141.000
7.72000 144.000
7.76000 153.000
7.80000 148.000
7.84000 138.000
7.88000 127.000
7.92000 130.000
7.96000 142.000
8.00000 115.000
8.04000 120.000
8.08000 137.000
8.12000 130.000
8.16000 122.000
8.20000 118.000
8.24000 148.000
8.28000 140.000
8.32000 153.000
8.36000 148.000
8.40000 183.000
8.44000 147.000
8.48000 143.000
8.52000 180.000
8.56000 165.000
8.60000 226.000
8.64000 245.000
8.68000 241.000
8.72000 206.000
8.76000 166.000
8.80000 140.000
8.84000 122.000
8.88000 149.000
8.92000 151.000
8.96000 133.000
9.00000 148.000
9.04000 133.000
9.08000 134.000
9.12000 105.000
9.16000 104.000
9.20000 148.000
9.24000 131.000
9.28000 117.000
9.32000 118.000
9.36000 99.000
9.40000 114.000
9.44000 107.000
9.48000 114.000
9.52000 109.000
9.56000 111.000
9.60000 121.000
9.64000 95.000
9.68000 117.000
9.72000 96.000
9.76000 107.000
9.80000 117.000
9.84000 87.000
9.88000 112.000
9.92000 94.000
9.96000 108.000
10.00000 98.000
10.04000 102.000
10.08000 124.000
10.12000 98.000
10.16000 115.000
10.20000 97.000
10.24000 89.000
10.28000 109.000
10.32000 102.000
10.36000 95.000
10.40000 105.000
10.44000 95.000
10.48000 110.000
10.52000 96.000
10.56000 93.000
10.60000 99.000
10.64000 100.000
10.68000 94.000
10.72000 96.000
10.76000 106.000
10.80000 101.000
10.84000 117.000
10.88000 94.000
10.92000 109.000
10.96000 99.000
11.00000 100.000
11.04000 87.000
11.08000 103.000
11.12000 98.000
11.16000 105.000
11.20000 85.000
11.24000 95.000
11.28000 107.000
11.32000 95.000
11.36000 118.000
11.40000 91.000
11.44000 105.000
11.48000 91.000
11.52000 73.000
11.56000 96.000
11.60000 102.000
11.64000 83.000
11.68000 81.000
11.72000 101.000
11.76000 81.000
11.80000 94.000
11.84000 83.000
11.88000 90.000
11.92000 78.000
11.96000 84.000
12.00000 88.000
12.04000 93.000
12.08000 97.000
12.12000 114.000
12.16000 85.000
12.20000 90.000
12.24000 95.000
12.28000 97.000
12.32000 86.000
12.36000 99.000
12.40000 90.000
12.44000 113.000
12.48000 92.000
12.52000 135.000
12.56000 97.000
12.60000 118.000
12.64000 144.000
12.68000 143.000
12.72000 142.000
12.76000 161.000
12.80000 155.000
12.84000 134.000
12.88000 117.000
12.92000 111.000
12.96000 89.000
13.00000 110.000
13.04000 115.000
13.08000 100.000
13.12000 115.000
13.16000 113.000
13.20000 105.000
13.24000 96.000
13.28000 125.000
13.32000 143.000
13.36000 153.000
13.40000 151.000
13.44000 182.000
13.48000 180.000
13.52000 190.000
13.56000 229.000
13.60000 239.000
13.64000 201.000
13.68000 141.000
13.72000 91.000
13.76000 99.000
13.80000 107.000
13.84000 77.000
13.88000 77.000
13.92000 84.000
13.96000 77.000
14.00000 73.000
14.04000 99.000
14.08000 89.000
14.12000 81.000
14.16000 91.000
14.20000 79.000
14.24000 70.000
14.28000 89.000
14.32000 89.000
14.36000 87.000
14.40000 65.000
14.44000 86.000
14.48000 87.000
14.52000 77.000
14.56000 85.000
14.60000 78.000
14.64000 87.000
14.68000 82.000
14.72000 83.000
14.76000 93.000
14.80000 100.000
14.84000 93.000
14.88000 97.000
14.92000 93.000
14.96000 104.000
15.00000 94.000
15.04000 103.000
15.08000 116.000
15.12000 136.000
15.16000 138.000
15.20000 149.000
15.24000 177.000
15.28000 171.000
15.32000 184.000
15.36000 217.000
15.40000 252.000
15.44000 292.000
15.48000 323.000
15.52000 384.000
15.56000 514.000
15.60000 702.000
15.64000 882.000
15.68000 1023.000
15.72000 954.000
15.76000 706.000
15.80000 381.000
15.84000 207.000
15.88000 160.000
15.92000 103.000
15.96000 100.000
16.00000 97.000
16.04000 88.000
16.08000 93.000
16.12000 83.000
16.16000 78.000
16.20000 80.000
16.24000 85.000
16.28000 96.000
16.32000 63.000
16.36000 82.000
16.40000 82.000
16.44000 77.000
16.48000 81.000
16.52000 93.000
16.56000 75.000
16.60000 85.000
16.64000 83.000
16.68000 88.000
16.72000 69.000
16.76000 91.000
16.80000 82.000
16.84000 85.000
16.88000 82.000
16.92000 77.000
16.96000 84.000
17.00000 80.000
17.04000 70.000
17.08000 76.000
17.12000 72.000
17.16000 66.000
17.20000 76.000
17.24000 79.000
17.28000 86.000
17.32000 74.000
17.36000 92.000
17.40000 71.000
17.44000 76.000
17.48000 61.000
17.52000 77.000
17.56000 63.000
17.60000 65.000
17.64000 77.000
17.68000 72.000
17.72000 76.000
17.76000 80.000
17.80000 90.000
17.84000 89.000
17.88000 100.000
17.92000 112.000
17.96000 120.000
18.00000 135.000
18.04000 114.000
18.08000 104.000
18.12000 83.000
18.16000 86.000
18.20000 77.000
18.24000 71.000
18.28000 89.000
18.32000 108.000
18.36000 90.000
18.40000 90.000
18.44000 81.000
18.48000 102.000
18.52000 93.000
18.56000 82.000
18.60000 88.000
18.64000 76.000
18.68000 95.000
18.72000 99.000
18.76000 100.000
18.80000 78.000
18.84000 79.000
18.88000 80.000
18.92000 84.000
18.96000 75.000
19.00000 91.000
19.04000 103.000
19.08000 88.000
19.12000 99.000
19.16000 75.000
19.20000 88.000
19.24000 85.000
19.28000 108.000
19.32000 82.000
19.36000 79.000
19.40000 99.000
19.44000 93.000
19.48000 112.000
19.52000 101.000
19.56000 92.000
19.60000 96.000
19.64000 91.000
19.68000 101.000
19.72000 90.000
19.76000 92.000
19.80000 82.000
19.84000 92.000
19.88000 85.000
19.92000 95.000
19.96000 79.000
20.00000 95.000
20.04000 91.000
20.08000 99.000
20.12000 72.000
20.16000 99.000
20.20000 94.000
20.24000 86.000
20.28000 91.000
20.32000 92.000
20.36000 93.000
20.40000 94.000
20.44000 90.000
20.48000 98.000
20.52000 94.000
20.56000 96.000
20.60000 94.000
20.64000 89.000
20.68000 102.000
20.72000 91.000
20.76000 90.000
20.80000 90.000
20.84000 95.000
20.88000 88.000
20.92000 97.000
20.96000 101.000
21.00000 121.000
21.04000 123.000
21.08000 108.000
21.12000 140.000
21.16000 135.000
21.20000 132.000
21.24000 139.000
21.28000 139.000
21.32000 124.000
21.36000 109.000
21.40000 115.000
21.44000 119.000
21.48000 107.000
21.52000 109.000
21.56000 112.000
21.60000 102.000
21.64000 110.000
21.68000 107.000
21.72000 160.000
21.76000 150.000
21.80000 154.000
21.84000 220.000
21.88000 222.000
21.92000 260.000
21.96000 364.000
22.00000 460.000
22.04000 589.000
22.08000 767.000
22.12000 940.000
22.16000 1241.000
22.20000 1674.000
22.24000 2428.000
22.28000 2766.000
22.32000 2322.000
22.36000 1483.000
22.40000 856.000
22.44000 527.000
22.48000 332.000
22.52000 198.000
22.56000 174.000
22.60000 125.000
22.64000 118.000
22.68000 126.000
22.72000 120.000
22.76000 111.000
22.80000 101.000
22.84000 97.000
22.88000 98.000
22.92000 94.000
22.96000 91.000
23.00000 87.000
23.04000 97.000
23.08000 109.000
23.12000 111.000
23.16000 78.000
23.20000 115.000
23.24000 109.000
23.28000 100.000
23.32000 100.000
23.36000 112.000
23.40000 103.000
23.44000 98.000
23.48000 110.000
23.52000 147.000
23.56000 162.000
23.60000 218.000
23.64000 280.000
23.68000 292.000
23.72000 298.000
23.76000 313.000
23.80000 257.000
23.84000 195.000
23.88000 178.000
23.92000 164.000
23.96000 161.000
24.00000 148.000
24.04000 161.000
24.08000 165.000
24.12000 209.000
24.16000 200.000
24.20000 229.000
24.24000 250.000
24.28000 234.000
24.32000 193.000
24.36000 164.000
24.40000 146.000
24.44000 122.000
24.48000 126.000
24.52000 123.000
24.56000 105.000
24.60000 100.000
24.64000 114.000
24.68000 108.000
24.72000 99.000
24.76000 132.000
24.80000 136.000
24.84000 122.000
24.88000 119.000
24.92000 125.000
24.96000 109.000
25.00000 123.000
25.04000 129.000
25.08000 106.000
25.12000 106.000
25.16000 108.000
25.20000 102.000
25.24000 99.000
25.28000 134.000
25.32000 127.000
25.36000 137.000
25.40000 122.000
25.44000 126.000
25.48000 144.000
25.52000 126.000
25.56000 113.000
25.60000 115.000
25.64000 122.000
25.68000 139.000
25.72000 126.000
25.76000 135.000
25.80000 138.000
25.84000 118.000
25.88000 127.000
25.92000 143.000
25.96000 146.000
26.00000 148.000
26.04000 182.000
26.08000 216.000
26.12000 243.000
26.16000 296.000
26.20000 297.000
26.24000 356.000
26.28000 281.000
26.32000 211.000
26.36000 182.000
26.40000 131.000
26.44000 137.000
26.48000 130.000
26.52000 115.000
26.56000 116.000
26.60000 147.000
26.64000 139.000
26.68000 146.000
26.72000 142.000
26.76000 125.000
26.80000 119.000
26.84000 150.000
26.88000 143.000
26.92000 158.000
26.96000 167.000
27.00000 204.000
27.04000 199.000
27.08000 236.000
27.12000 301.000
27.16000 385.000
27.20000 479.000
27.24000 535.000
27.28000 749.000
27.32000 1011.000
27.36000 1234.000
27.40000 1210.000
27.44000 917.000
27.48000 633.000
27.52000 382.000
27.56000 250.000
27.60000 196.000
27.64000 181.000
27.68000 153.000
27.72000 131.000
27.76000 116.000
27.80000 128.000
27.84000 131.000
27.88000 139.000
27.92000 103.000
27.96000 138.000
28.00000 145.000
28.04000 127.000
28.08000 111.000
28.12000 117.000
28.16000 104.000
28.20000 116.000
28.24000 107.000
28.28000 120.000
28.32000 105.000
28.36000 113.000
28.40000 105.000
28.44000 123.000
28.48000 120.000
28.52000 112.000
28.56000 137.000
28.60000 107.000
28.64000 127.000
28.68000 140.000
28.72000 142.000
28.76000 150.000
28.80000 164.000
28.84000 151.000
28.88000 138.000
28.92000 128.000
28.96000 117.000
29.00000 132.000
29.04000 98.000
29.08000 111.000
29.12000 116.000
29.16000 125.000
29.20000 122.000
29.24000 114.000
29.28000 144.000
29.32000 155.000
29.36000 170.000
29.40000 182.000
29.44000 178.000
29.48000 173.000
29.52000 174.000
29.56000 201.000
29.60000 212.000
29.64000 169.000
29.68000 219.000
29.72000 174.000
29.76000 144.000
29.80000 146.000
29.84000 120.000
29.88000 132.000
29.92000 132.000
29.96000 123.000
30.00000 130.000
30.04000 133.000
30.08000 144.000
30.12000 131.000
30.16000 154.000
30.20000 124.000
30.24000 147.000
30.28000 135.000
30.32000 132.000
30.36000 141.000
30.40000 138.000
30.44000 155.000
30.48000 136.000
30.52000 144.000
30.56000 148.000
30.60000 162.000
30.64000 156.000
30.68000 167.000
30.72000 191.000
30.76000 245.000
30.80000 273.000
30.84000 296.000
30.88000 260.000
30.92000 253.000
30.96000 248.000
31.00000 207.000
31.04000 216.000
31.08000 180.000
31.12000 173.000
31.16000 215.000
31.20000 257.000
31.24000 303.000
31.28000 330.000
31.32000 363.000
31.36000 413.000
31.40000 472.000
31.44000 539.000
31.48000 687.000
31.52000 964.000
31.56000 1407.000
31.60000 2154.000
31.64000 2729.000
31.68000 3268.000
31.72000 3571.000
31.76000 2990.000
31.80000 2250.000
31.84000 1474.000
31.88000 803.000
31.92000 468.000
31.96000 357.000
32.00000 253.000
32.04000 201.000
32.08000 174.000
32.12000 167.000
32.16000 138.000
32.20000 148.000
32.24000 113.000
32.28000 104.000
32.32000 103.000
32.36000 128.000
32.40000 122.000
32.44000 109.000
32.48000 115.000
32.52000 107.000
32.56000 116.000
32.60000 115.000
32.64000 100.000
32.68000 110.000
32.72000 86.000
32.76000 105.000
32.80000 119.000
32.84000 93.000
32.88000 115.000
32.92000 119.000
32.96000 106.000
33.00000 89.000
33.04000 103.000
33.08000 93.000
33.12000 129.000
33.16000 102.000
33.20000 101.000
33.24000 73.000
33.28000 103.000
33.32000 96.000
33.36000 100.000
33.40000 108.000
33.44000 104.000
33.48000 118.000
33.52000 125.000
33.56000 121.000
33.60000 146.000
33.64000 157.000
33.68000 188.000
33.72000 202.000
33.76000 262.000
33.80000 306.000
33.84000 381.000
33.88000 421.000
33.92000 462.000
33.96000 494.000
34.00000 491.000
34.04000 407.000
34.08000 350.000
34.12000 290.000
34.16000 249.000
34.20000 195.000
34.24000 164.000
34.28000 139.000
34.32000 134.000
34.36000 138.000
34.40000 127.000
34.44000 129.000
34.48000 139.000
34.52000 131.000
34.56000 130.000
34.60000 178.000
34.64000 172.000
34.68000 179.000
34.72000 178.000
34.76000 119.000
34.80000 118.000
34.84000 105.000
34.88000 103.000
34.92000 108.000
34.96000 131.000
35.00000 111.000
35.04000 137.000
35.08000 140.000
35.12000 107.000
35.16000 145.000
35.20000 149.000
35.24000 128.000
35.28000 131.000
35.32000 166.000
35.36000 159.000
35.40000 200.000
35.44000 257.000
35.48000 322.000
35.52000 422.000
35.56000 558.000
35.60000 516.000
35.64000 501.000
35.68000 362.000
35.72000 292.000
35.76000 202.000
35.80000 145.000
35.84000 111.000
35.88000 93.000
35.92000 104.000
35.96000 82.000
36.00000 93.000
36.04000 106.000
36.08000 103.000
36.12000 82.000
36.16000 83.000
36.20000 87.000
36.24000 79.000
36.28000 70.000
36.32000 92.000
36.36000 75.000
36.40000 70.000
36.44000 74.000
36.48000 88.000
36.52000 76.000
36.56000 85.000
36.60000 72.000
36.64000 79.000
36.68000 79.000
36.72000 66.000
36.76000 82.000
36.80000 82.000
36.84000 85.000
36.88000 83.000
36.92000 66.000
36.96000 68.000
37.00000 72.000
37.04000 81.000
37.08000 97.000
37.12000 95.000
37.16000 100.000
37.20000 90.000
37.24000 76.000
37.28000 95.000
37.32000 87.000
37.36000 106.000
37.40000 72.000
37.44000 90.000
37.48000 74.000
37.52000 81.000
37.56000 77.000
37.60000 74.000
37.64000 98.000
37.68000 88.000
37.72000 85.000
37.76000 81.000
37.80000 97.000
37.84000 89.000
37.88000 96.000
37.92000 104.000
37.96000 72.000
38.00000 94.000
38.04000 83.000
38.08000 82.000
38.12000 92.000
38.16000 92.000
38.20000 113.000
38.24000 119.000
38.28000 101.000
38.32000 98.000
38.36000 126.000
38.40000 104.000
38.44000 89.000
38.48000 96.000
38.52000 94.000
38.56000 102.000
38.60000 114.000
38.64000 111.000
38.68000 126.000
38.72000 164.000
38.76000 152.000
38.80000 211.000
38.84000 220.000
38.88000 285.000
38.92000 385.000
38.96000 493.000
39.00000 728.000
39.04000 892.000
39.08000 1122.000
39.12000 1153.000
39.16000 1003.000
39.20000 898.000
39.24000 615.000
39.28000 420.000
39.32000 268.000
39.36000 180.000
39.40000 141.000
39.44000 105.000
39.48000 108.000
39.52000 100.000
39.56000 88.000
39.60000 104.000
39.64000 100.000
39.68000 91.000
39.72000 86.000
39.76000 89.000
39.80000 89.000
39.84000 95.000
39.88000 78.000
39.92000 74.000
39.96000 97.000
40.00000 91.000
40.04000 86.000
40.08000 82.000
40.12000 66.000
40.16000 91.000
40.20000 83.000
40.24000 71.000
40.28000 69.000
40.32000 76.000
40.36000 94.000
40.40000 82.000
40.44000 91.000
40.48000 105.000
40.52000 91.000
40.56000 99.000
40.60000 90.000
40.64000 63.000
40.68000 75.000
40.72000 88.000
40.76000 68.000
40.80000 71.000
40.84000 93.000
40.88000 76.000
40.92000 83.000
40.96000 77.000
41.00000 73.000
41.04000 105.000
41.08000 77.000
41.12000 94.000
41.16000 78.000
41.20000 72.000
41.24000 89.000
41.28000 75.000
41.32000 78.000
41.36000 80.000
41.40000 87.000
41.44000 103.000
41.48000 87.000
41.52000 108.000
41.56000 136.000
41.60000 143.000
41.64000 113.000
41.68000 108.000
41.72000 105.000
41.76000 87.000
41.80000 87.000
41.84000 68.000
41.88000 76.000
41.92000 82.000
41.96000 83.000
42.00000 78.000
42.04000 74.000
42.08000 88.000
42.12000 83.000
42.16000 83.000
42.20000 80.000
42.24000 84.000
42.28000 87.000
42.32000 70.000
42.36000 81.000
42.40000 73.000
42.44000 71.000
42.48000 83.000
42.52000 74.000
42.56000 81.000
42.60000 75.000
42.64000 64.000
42.68000 85.000
42.72000 109.000
42.76000 95.000
42.80000 135.000
42.84000 140.000
42.88000 185.000
42.92000 190.000
42.96000 198.000
43.00000 184.000
43.04000 156.000
43.08000 141.000
43.12000 113.000
43.16000 126.000
43.20000 130.000
43.24000 136.000
43.28000 167.000
43.32000 190.000
43.36000 172.000
43.40000 183.000
43.44000 189.000
43.48000 175.000
43.52000 153.000
43.56000 115.000
43.60000 107.000
43.64000 81.000
43.68000 77.000
43.72000 94.000
43.76000 77.000
43.80000 81.000
43.84000 80.000
43.88000 76.000
43.92000 77.000
43.96000 74.000
44.00000 79.000
44.04000 77.000
44.08000 80.000
44.12000 78.000
44.16000 111.000
44.20000 87.000
44.24000 117.000
44.28000 118.000
44.32000 108.000
44.36000 142.000
44.40000 113.000
44.44000 90.000
44.48000 78.000
44.52000 87.000
44.56000 92.000
44.60000 90.000
44.64000 88.000
44.68000 81.000
44.72000 101.000
44.76000 91.000
44.80000 91.000
44.84000 100.000
44.88000 98.000
44.92000 111.000
44.96000 110.000
45.00000 109.000
45.04000 160.000
45.08000 162.000
45.12000 188.000
45.16000 212.000
45.20000 268.000
45.24000 309.000
45.28000 394.000
45.32000 512.000
45.36000 718.000
45.40000 1052.000
45.44000 1448.000
45.48000 1469.000
45.52000 1296.000
45.56000 1142.000
45.60000 904.000
45.64000 678.000
45.68000 420.000
45.72000 277.000
45.76000 212.000
45.80000 161.000
45.84000 122.000
45.88000 104.000
45.92000 82.000
45.96000 102.000
46.00000 94.000
46.04000 91.000
46.08000 87.000
46.12000 78.000
46.16000 71.000
46.20000 91.000
46.24000 83.000
46.28000 81.000
46.32000 88.000
46.36000 85.000
46.40000 85.000
46.44000 81.000
46.48000 86.000
46.52000 96.000
46.56000 86.000
46.60000 77.000
46.64000 87.000
46.68000 102.000
46.72000 102.000
46.76000 96.000
46.80000 107.000
46.84000 158.000
46.88000 125.000
46.92000 111.000
46.96000 123.000
47.00000 106.000
47.04000 106.000
47.08000 90.000
47.12000 91.000
47.16000 87.000
47.20000 86.000
47.24000 64.000
47.28000 78.000
47.32000 58.000
47.36000 83.000
47.40000 95.000
47.44000 85.000
47.48000 90.000
47.52000 103.000
47.56000 97.000
47.60000 114.000
47.64000 122.000
47.68000 137.000
47.72000 153.000
47.76000 140.000
47.80000 152.000
47.84000 131.000
47.88000 114.000
47.92000 113.000
47.96000 97.000
48.00000 88.000
48.04000 100.000
48.08000 86.000
48.12000 83.000
48.16000 82.000
48.20000 120.000
48.24000 141.000
48.28000 157.000
48.32000 183.000
48.36000 214.000
48.40000 259.000
48.44000 248.000
48.48000 199.000
48.52000 198.000
48.56000 167.000
48.60000 133.000
48.64000 125.000
48.68000 104.000
48.72000 95.000
48.76000 95.000
48.80000 99.000
48.84000 91.000
48.88000 75.000
48.92000 94.000
48.96000 81.000
49.00000 67.000
49.04000 84.000
49.08000 86.000
49.12000 71.000
49.16000 82.000
49.20000 67.000
49.24000 95.000
49.28000 84.000
49.32000 88.000
49.36000 70.000
49.40000 91.000
49.44000 87.000
49.48000 79.000
49.52000 82.000
49.56000 74.000
49.60000 83.000
49.64000 82.000
49.68000 79.000
49.72000 68.000
49.76000 78.000
49.80000 55.000
49.84000 66.000
49.88000 62.000
49.92000 72.000
49.96000 73.000
50.00000 80.000
50.04000 67.000
50.08000 63.000
50.12000 71.000
50.16000 71.000
50.20000 72.000
50.24000 67.000
50.28000 81.000
50.32000 55.000
50.36000 82.000
50.40000 61.000
50.44000 76.000
50.48000 75.000
50.52000 72.000
50.56000 71.000
50.60000 69.000
50.64000 74.000
50.68000 66.000
50.72000 89.000
50.76000 71.000
50.80000 91.000
50.84000 95.000
50.88000 107.000
50.92000 134.000
50.96000 142.000
51.00000 163.000
51.04000 164.000
51.08000 214.000
51.12000 292.000
51.16000 367.000
51.20000 417.000
51.24000 370.000
51.28000 301.000
51.32000 278.000
51.36000 249.000
51.40000 183.000
51.44000 123.000
51.48000 109.000
51.52000 92.000
51.56000 85.000
51.60000 90.000
51.64000 71.000
51.68000 97.000
51.72000 76.000
51.76000 64.000
51.80000 80.000
51.84000 73.000
51.88000 77.000
51.92000 84.000
51.96000 77.000
52.00000 64.000
52.04000 79.000
52.08000 55.000
52.12000 71.000
52.16000 71.000
52.20000 58.000
52.24000 83.000
52.28000 69.000
52.32000 89.000
52.36000 72.000
52.40000 73.000
52.44000 71.000
52.48000 55.000
52.52000 72.000
52.56000 67.000
52.60000 72.000
52.64000 64.000
52.68000 71.000
52.72000 65.000
52.76000 75.000
52.80000 76.000
52.84000 69.000
52.88000 56.000
52.92000 61.000
52.96000 74.000
53.00000 77.000
53.04000 76.000
53.08000 83.000
53.12000 76.000
53.16000 96.000
53.20000 72.000
53.24000 83.000
53.28000 87.000
53.32000 105.000
53.36000 97.000
53.40000 87.000
53.44000 79.000
53.48000 94.000
53.52000 97.000
53.56000 74.000
53.60000 82.000
53.64000 103.000
53.68000 97.000
53.72000 96.000
53.76000 141.000
53.80000 173.000
53.84000 205.000
53.88000 223.000
53.92000 232.000
53.96000 200.000
54.00000 176.000
54.04000 169.000
54.08000 138.000
54.12000 130.000
54.16000 96.000
54.20000 79.000
54.24000 86.000
54.28000 59.000
54.32000 71.000
54.36000 81.000
54.40000 63.000
54.44000 52.000
54.48000 51.000
54.52000 59.000
54.56000 76.000
54.60000 71.000
54.64000 67.000
54.68000 70.000
54.72000 85.000
54.76000 65.000
54.80000 85.000
54.84000 73.000
54.88000 93.000
54.92000 98.000
54.96000 81.000
55.00000 103.000
55.04000 89.000
55.08000 80.000
55.12000 81.000
55.16000 78.000
55.20000 77.000
55.24000 69.000
55.28000 80.000
55.32000 63.000
55.36000 80.000
55.40000 77.000
55.44000 79.000
55.48000 82.000
55.52000 100.000
55.56000 72.000
55.60000 80.000
55.64000 87.000
55.68000 93.000
55.72000 76.000
55.76000 69.000
55.80000 65.000
55.84000 72.000
55.88000 103.000
55.92000 94.000
55.96000 89.000
56.00000 116.000
56.04000 140.000
56.08000 124.000
56.12000 149.000
56.16000 156.000
56.20000 128.000
56.24000 133.000
56.28000 139.000
56.32000 171.000
56.36000 162.000
56.40000 256.000
56.44000 300.000
56.48000 341.000
56.52000 329.000
56.56000 285.000
56.60000 253.000
56.64000 207.000
56.68000 203.000
56.72000 148.000
56.76000 125.000
56.80000 101.000
56.84000 78.000
56.88000 95.000
56.92000 83.000
56.96000 90.000
57.00000 75.000
57.04000 86.000
57.08000 86.000
57.12000 94.000
57.16000 89.000
57.20000 95.000
57.24000 79.000
57.28000 104.000
57.32000 83.000
57.36000 74.000
57.40000 72.000
57.44000 73.000
57.48000 66.000
57.52000 56.000
57.56000 74.000
57.60000 74.000
57.64000 72.000
57.68000 76.000
57.72000 72.000
57.76000 79.000
57.80000 72.000
57.84000 78.000
57.88000 78.000
57.92000 82.000
57.96000 88.000
58.00000 96.000
58.04000 76.000
58.08000 90.000
58.12000 86.000
58.16000 82.000
58.20000 94.000
58.24000 72.000
58.28000 90.000
58.32000 114.000
58.36000 83.000
58.40000 78.000
58.44000 81.000
58.48000 87.000
58.52000 76.000
58.56000 68.000
58.60000 65.000
58.64000 76.000
58.68000 78.000
58.72000 70.000
58.76000 70.000
58.80000 82.000
58.84000 86.000
58.88000 92.000
58.92000 85.000
58.96000 99.000
59.00000 118.000
59.04000 112.000
59.08000 134.000
59.12000 119.000
59.16000 118.000
59.20000 102.000
59.24000 89.000
59.28000 109.000
59.32000 83.000
59.36000 69.000
59.40000 54.000
59.44000 54.000
59.48000 62.000
59.52000 61.000
59.56000 57.000
59.60000 59.000
59.64000 72.000
59.68000 58.000
59.72000 69.000
59.76000 78.000
59.80000 82.000
59.84000 77.000
59.88000 69.000
59.92000 71.000
59.96000 69.000
60.00000 80.000
60.04000 73.000
60.08000 77.000
60.12000 55.000
60.16000 57.000
60.20000 77.000
60.24000 54.000
60.28000 68.000
60.32000 65.000
60.36000 54.000
60.40000 53.000
60.44000 64.000
60.48000 57.000
60.52000 70.000
60.56000 90.000
60.60000 54.000
60.64000 60.000
60.68000 57.000
60.72000 67.000
60.76000 75.000
60.80000 60.000
60.84000 81.000
60.88000 69.000
60.92000 61.000
60.96000 57.000
61.00000 78.000
61.04000 65.000
61.08000 61.000
61.12000 60.000
61.16000 87.000
61.20000 72.000
61.24000 83.000
61.28000 102.000
61.32000 106.000
61.36000 145.000
61.40000 185.000
61.44000 258.000
61.48000 272.000
61.52000 265.000
61.56000 215.000
61.60000 234.000
61.64000 215.000
61.68000 181.000
61.72000 165.000
61.76000 115.000
61.80000 95.000
61.84000 95.000
61.88000 83.000
61.92000 85.000
61.96000 70.000
62.00000 68.000
62.04000 58.000
62.08000 66.000
62.12000 80.000
62.16000 65.000
62.20000 64.000
62.24000 52.000
62.28000 64.000
62.32000 61.000
62.36000 60.000
62.40000 61.000
62.44000 56.000
62.48000 62.000
62.52000 54.000
62.56000 56.000
62.60000 58.000
62.64000 58.000
62.68000 61.000
62.72000 81.000
62.76000 69.000
62.80000 60.000
62.84000 65.000
62.88000 55.000
62.92000 65.000
62.96000 45.000
63.00000 66.000
63.04000 45.000
63.08000 59.000
63.12000 68.000
63.16000 55.000
63.20000 67.000
63.24000 79.000
63.28000 91.000
63.32000 71.000
63.36000 71.000
63.40000 70.000
63.44000 76.000
63.48000 66.000
63.52000 72.000
63.56000 67.000
63.60000 58.000
63.64000 57.000
63.68000 54.000
63.72000 62.000
63.76000 60.000
63.80000 59.000
63.84000 56.000
63.88000 67.000
63.92000 60.000
63.96000 64.000
64.00000 56.000
64.04000 56.000
64.08000 47.000
64.12000 51.000
64.16000 54.000
64.20000 51.000
64.24000 68.000
64.28000 46.000
64.32000 59.000
64.36000 63.000
64.40000 68.000
64.44000 56.000
64.48000 48.000
64.52000 62.000
64.56000 54.000
64.60000 62.000
64.64000 50.000
64.68000 57.000
64.72000 46.000
64.76000 66.000
64.80000 58.000
64.84000 61.000
64.88000 67.000
64.92000 57.000
64.96000 55.000
65.00000 48.000
65.04000 66.000
65.08000 58.000
65.12000 59.000
65.16000 62.000
65.20000 51.000
65.24000 40.000
65.28000 52.000
65.32000 52.000
65.36000 56.000
65.40000 68.000
65.44000 55.000
65.48000 55.000
65.52000 54.000
65.56000 76.000
65.60000 56.000
65.64000 50.000
65.68000 58.000
65.72000 65.000
65.76000 54.000
65.80000 63.000
65.84000 53.000
65.88000 56.000
65.92000 72.000
65.96000 56.000
66.00000 76.000
66.04000 79.000
66.08000 82.000
66.12000 101.000
66.16000 123.000
66.20000 130.000
66.24000 147.000
66.28000 133.000
66.32000 120.000
66.36000 119.000
66.40000 119.000
66.44000 129.000
66.48000 96.000
66.52000 79.000
66.56000 62.000
66.60000 65.000
66.64000 77.000
66.68000 67.000
66.72000 58.000
66.76000 64.000
66.80000 63.000
66.84000 63.000
66.88000 76.000
66.92000 74.000
66.96000 65.000
67.00000 67.000
67.04000 62.000
67.08000 71.000
67.12000 58.000
67.16000 71.000
67.20000 55.000
67.24000 66.000
67.28000 62.000
67.32000 73.000
67.36000 73.000
67.40000 77.000
67.44000 56.000
67.48000 50.000
67.52000 63.000
67.56000 59.000
67.60000 52.000
67.64000 50.000
67.68000 47.000
67.72000 54.000
67.76000 63.000
67.80000 68.000
67.84000 59.000
67.88000 60.000
67.92000 73.000
67.96000 73.000
68.00000 75.000
68.04000 73.000
68.08000 73.000
68.12000 73.000
68.16000 71.000
68.20000 79.000
68.24000 63.000
68.28000 72.000
68.32000 83.000
68.36000 59.000
68.40000 56.000
68.44000 70.000
68.48000 93.000
68.52000 80.000
68.56000 118.000
68.60000 114.000
68.64000 104.000
68.68000 120.000
68.72000 113.000
68.76000 91.000
68.80000 105.000
68.84000 81.000
68.88000 60.000
68.92000 55.000
68.96000 58.000
69.00000 60.000
69.04000 51.000
69.08000 56.000
69.12000 54.000
69.16000 53.000
69.20000 52.000
69.24000 51.000
69.28000 60.000
69.32000 49.000
69.36000 51.000
69.40000 51.000
69.44000 60.000
69.48000 34.000
69.52000 57.000
69.56000 56.000
69.60000 57.000
69.64000 64.000
69.68000 60.000
69.72000 63.000
69.76000 53.000
69.80000 66.000
69.84000 62.000
69.88000 57.000
69.92000 59.000
69.96000 58.000