10 77 
10.0496 102 
10.0992 92 
10.1489 96 
10.1985 86 
10.2481 87 
10.2977 85 
10.3473 91 
 10.397 95 
10.4466 84 
10.4962 95 
10.5458 77 
10.5954 81 
10.6451 88 
10.6947 84 
10.7443 86 
10.7939 76 
10.8435 64 
10.8932 85 
10.9428 77 
10.9924 77 
 11.042 79 
11.0916 69 
11.1413 77 
11.1909 75 
11.2405 67 
11.2901 78 
11.3397 70 
11.3894 72 
 11.439 61 
11.4886 73 
11.5382 59 
11.5878 59 
11.6375 65 
11.6871 64 
11.7367 82 
11.7863 56 
11.8359 60 
11.8856 61 
11.9352 58 
11.9848 62 
12.0344 59 
 12.084 55 
12.1337 52 
12.1833 53 
12.2329 41 
12.2825 56 
12.3321 64 
12.3818 62 
12.4314 51 
 12.481 58 
12.5306 70 
12.5802 100 
12.6299 120 
12.6795 154 
12.7291 98 
12.7787 66 
12.8283 54 
 12.878 47 
12.9276 29 
12.9772 48 
13.0268 57 
13.0764 39 
13.1261 43 
13.1757 39 
13.2253 40 
13.2749 44 
13.3245 42 
13.3742 54 
13.4238 47 
13.4734 37 
 13.523 49 
13.5726 49 
13.6223 39 
13.6719 47 
13.7215 39 
13.7711 42 
13.8207 52 
13.8704 63 
  13.92 76 
13.9696 116 
14.0192 217 
14.0688 568 
14.1185 933 
14.1681 346 
14.2177 100 
14.2673 62 
14.3169 53 
14.3666 42 
14.4162 25 
14.4658 32 
14.5154 35 
 14.565 39 
14.6147 31 
14.6643 30 
14.7139 44 
14.7635 36 
14.8131 41 
14.8628 35 
14.9124 29 
 14.962 32 
15.0116 25 
15.0613 28 
15.1109 28 
15.1605 31 
15.2101 36 
15.2597 25 
15.3094 25 
 15.359 36 
15.4086 17 
15.4582 30 
15.5078 20 
15.5575 22 
15.6071 21 
15.6567 35 
15.7063 24 
15.7559 20 
15.8056 21 
15.8552 25 
15.9048 17 
15.9544 26 
 16.004 36 
16.0537 25 
16.1033 27 
16.1529 16 
16.2025 18 
16.2521 23 
16.3018 27 
16.3514 23 
 16.401 27 
16.4506 24 
16.5002 27 
16.5499 25 
16.5995 35 
16.6491 23 
16.6987 15 
16.7483 31 
 16.798 21 
16.8476 27 
16.8972 28 
16.9468 20 
16.9964 16 
17.0461 23 
17.0957 27 
17.1453 27 
17.1949 20 
17.2445 31 
17.2942 28 
17.3438 17 
17.3934 24 
 17.443 20 
17.4926 21 
17.5423 20 
17.5919 22 
17.6415 32 
17.6911 29 
17.7407 22 
17.7904 19 
  17.84 25 
17.8896 30 
17.9392 24 
17.9888 21 
18.0385 18 
18.0881 22 
18.1377 18 
18.1873 14 
18.2369 20 
18.2866 22 
18.3362 23 
18.3858 30 
18.4354 27 
 18.485 21 
18.5347 30 
18.5843 26 
18.6339 25 
18.6835 14 
18.7331 29 
18.7828 25 
18.8324 22 
 18.882 30 
18.9316 26 
18.9812 21 
19.0309 20 
19.0805 29 
19.1301 28 
19.1797 20 
19.2293 24 
 19.279 23 
19.3286 13 
19.3782 21 
19.4278 14 
19.4774 23 
19.5271 22 
19.5767 23 
19.6263 15 
19.6759 35 
19.7255 14 
19.7752 23 
19.8248 26 
19.8744 25 
 19.924 37 
19.9736 56 
20.0233 46 
20.0729 29 
20.1225 23 
20.1721 20 
20.2217 22 
20.2714 28 
 20.321 22 
20.3706 17 
20.4202 22 
20.4698 23 
20.5195 19 
20.5691 24 
20.6187 16 
20.6683 22 
20.7179 21 
20.7676 18 
20.8172 21 
20.8668 24 
20.9164 20 
 20.966 23 
21.0157 15 
21.0653 32 
21.1149 23 
21.1645 17 
21.2141 24 
21.2638 18 
21.3134 29 
 21.363 28 
21.4126 20 
21.4622 22 
21.5119 17 
21.5615 28 
21.6111 15 
21.6607 18 
21.7103 17 
  21.76 30 
21.8096 18 
21.8592 21 
21.9088 15 
21.9584 19 
22.0081 20 
22.0577 26 
22.1073 22 
22.1569 27 
22.2065 13 
22.2562 25 
22.3058 20 
22.3554 25 
 22.405 18 
22.4546 31 
22.5043 23 
22.5539 24 
22.6035 15 
22.6531 22 
22.7027 25 
22.7524 23 
 22.802 21 
22.8516 24 
22.9012 22 
22.9508 25 
23.0005 32 
23.0501 15 
23.0997 18 
23.1493 25 
23.1989 16 
23.2486 23 
23.2982 24 
23.3478 17 
23.3974 40 
 23.447 45 
23.4967 35 
23.5463 34 
23.5959 18 
23.6455 23 
23.6951 22 
23.7448 27 
23.7944 26 
 23.844 23 
23.8936 23 
23.9432 20 
23.9929 27 
24.0425 24 
24.0921 23 
24.1417 22 
24.1913 26 
 24.241 32 
24.2906 24 
24.3402 26 
24.3898 24 
24.4394 30 
24.4891 45 
24.5387 34 
24.5883 21 
24.6379 21 
24.6875 12 
24.7372 20 
24.7868 29 
24.8364 19 
 24.886 20 
24.9357 16 
24.9853 14 
25.0349 23 
25.0845 28 
25.1341 19 
25.1838 27 
25.2334 25 
 25.283 13 
25.3326 21 
25.3822 21 
25.4319 15 
25.4815 30 
25.5311 31 
25.5807 16 
25.6303 31 
  25.68 22 
25.7296 19 
25.7792 23 
25.8288 17 
25.8784 22 
25.9281 22 
25.9777 18 
26.0273 28 
26.0769 22 
26.1265 26 
26.1762 16 
26.2258 26 
26.2754 23 
 26.325 42 
26.3746 51 
26.4243 90 
26.4739 126 
26.5235 117 
26.5731 72 
26.6227 51 
26.6724 28 
 26.722 29 
26.7716 33 
26.8212 29 
26.8708 27 
26.9205 24 
26.9701 26 
27.0197 19 
27.0693 19 
27.1189 16 
27.1686 29 
27.2182 24 
27.2678 22 
27.3174 17 
 27.367 26 
27.4167 22 
27.4663 25 
27.5159 25 
27.5655 26 
27.6151 19 
27.6648 21 
27.7144 26 
 27.764 18 
27.8136 21 
27.8632 20 
27.9129 20 
27.9625 25 
28.0121 25 
28.0617 21 
28.1113 22 
 28.161 26 
28.2106 42 
28.2602 35 
28.3098 55 
28.3594 130 
28.4091 323 
28.4587 306 
28.5083 89 
28.5579 35 
28.6075 32 
28.6572 18 
28.7068 22 
28.7564 25 
 28.806 24 
28.8556 13 
28.9053 23 
28.9549 19 
29.0045 18 
29.0541 26 
29.1037 10 
29.1534 16 
 29.203 25 
29.2526 19 
29.3022 13 
29.3518 25 
29.4015 19 
29.4511 26 
29.5007 33 
29.5503 22 
29.5999 11 
29.6496 15 
29.6992 12 
29.7488 25 
29.7984 12 
 29.848 17 
29.8977 12 
29.9473 16 
29.9969 23 
30.0465 18 
30.0961 17 
30.1458 17 
30.1954 17 
 30.245 25 
30.2946 18 
30.3442 17 
30.3939  5 
30.4435 16 
30.4931 16 
30.5427 14 
30.5923 21 
 30.642 18 
30.6916 23 
30.7412 21 
30.7908 17 
30.8404 24 
30.8901 21 
30.9397 24 
30.9893 27 
31.0389 16 
31.0885 18 
31.1382 19 
31.1878 25 
31.2374 25 
 31.287 22 
31.3366 18 
31.3863 19 
31.4359 22 
31.4855 19 
31.5351 18 
31.5847 20 
31.6344 16 
 31.684 21 
31.7336 24 
31.7832 60 
31.8328 99 
31.8825 93 
31.9321 35 
31.9817 25 
32.0313 23 
32.0809 16 
32.1306 19 
32.1802  8 
32.2298 16 
32.2794 18 
 32.329 18 
32.3787 18 
32.4283 16 
32.4779 22 
32.5275 13 
32.5771 18 
32.6268 14 
32.6764 21 
 32.726 14 
32.7756 22 
32.8252 19 
32.8749 16 
32.9245 14 
32.9741 20 
33.0237 17 
33.0733 11 
 33.123 13 
33.1726 16 
33.2222 10 
33.2718 23 
33.3214 19 
33.3711 18 
33.4207 25 
33.4703 19 
33.5199 19 
33.5695 39 
33.6192 61 
33.6688 66 
33.7184 66 
 33.768 38 
33.8176 29 
33.8673 28 
33.9169 19 
33.9665 22 
34.0161 25 
34.0657 12 
34.1154 17 
 34.165 16 
34.2146 18 
34.2642 15 
34.3138 16 
34.3635 16 
34.4131 16 
34.4627 12 
34.5123 23 
34.5619 21 
34.6116 15 
34.6612 16 
34.7108  8 
34.7604 14 
  34.81 16 
34.8597 13 
34.9093 25 
34.9589 23 
35.0085 22 
35.0582 16 
35.1078 14 
35.1574  7 
 35.207 16 
35.2566 16 
35.3063 14 
35.3559 19 
35.4055 15 
35.4551 12 
35.5047 16 
35.5544 14 
 35.604  8 
35.6536 14 
35.7032 11 
35.7528 17 
35.8025 13 
35.8521  9 
35.9017 11 
35.9513 17 
36.0009  9 
36.0506 15 
36.1002  9 
36.1498 10 
36.1994 16 
 36.249 15 
36.2987 12 
36.3483 13 
36.3979  6 
36.4475  9 
36.4971 11 
36.5468 11 
36.5964 12 
 36.646 14 
36.6956 14 
36.7452  9 
36.7949  7 
36.8445 13 
36.8941 14 
36.9437  9 
36.9933 18 
 37.043  9 
37.0926 10 
37.1422 16 
37.1918 10 
37.2414 13 
37.2911 18 
37.3407 15 
37.3903 20 
37.4399 17 
37.4895 21 
37.5392 34 
37.5888 54 
37.6384 74 
 37.688 109 
37.7376 92 
37.7873 49 
37.8369 48 
37.8865 33 
37.9361 16 
37.9857 24 
38.0354 19 
 38.085 22 
38.1346 13 
38.1842 11 
38.2338 14 
38.2835 11 
38.3331 12 
38.3827 10 
38.4323  6 
38.4819 10 
38.5316 12 
38.5812 14 
38.6308 23 
38.6804 16 
  38.73 18 
38.7797 18 
38.8293 13 
38.8789 11 
38.9285 15 
38.9781  8 
39.0278  7 
39.0774 13 
 39.127  4 
39.1766 11 
39.2262 12 
39.2759  9 
39.3255 14 
39.3751 16 
39.4247 11 
39.4743 13 
 39.524 18 
39.5736 10 
39.6232 12 
39.6728  7 
39.7224  7 
39.7721 11 
39.8217 13 
39.8713  8 
39.9209  9 
39.9705 13 
40.0202 10 
40.0698  9 
40.1194  9 
 40.169  6 
40.2186 19 
40.2683 17 
40.3179 12 
40.3675 15 
40.4171 20 
40.4667 23 
40.5164 15 
 40.566 28 
40.6156 48 
40.6652 27 
40.7148 18 
40.7645 12 
40.8141 10 
40.8637 15 
40.9133 11 
40.9629  9 
41.0126 12 
41.0622 10 
41.1118  8 
41.1614  7 
 41.211 12 
41.2607  9 
41.3103 10 
41.3599 13 
41.4095  7 
41.4591 13 
41.5088  7 
41.5584 11 
 41.608  7 
41.6576  4 
41.7072  8 
41.7569  7 
41.8065  8 
41.8561 16 
41.9057  9 
41.9553 14 
 42.005 11 
42.0546  6 
42.1042 13 
42.1538  9 
42.2034 11 
42.2531  6 
42.3027 14 
42.3523 17 
42.4019  9 
42.4515 12 
42.5012 13 
42.5508 21 
42.6004 20 
  42.65 14 
42.6996 11 
42.7493  8 
42.7989 10 
42.8485 14 
42.8981 21 
42.9477  9 
42.9974 24 
 43.047 18 
43.0966 21 
43.1462 20 
43.1958 26 
43.2455 30 
43.2951  8 
43.3447  7 
43.3943 12 
43.4439 12 
43.4936 16 
43.5432 14 
43.5928 15 
43.6424  4 
 43.692  8 
43.7417  5 
43.7913  9 
43.8409 13 
43.8905  7 
43.9401  7 
43.9898 11 
44.0394 10 
 44.089 15 
44.1386  5 
44.1882  6 
44.2379 10 
44.2875  9 
44.3371 15 
44.3867  6 
44.4363 10 
 44.486  7 
44.5356 14 
44.5852 11 
44.6348 10 
44.6844  5 
44.7341  5 
44.7837 11 
44.8333 16 
44.8829 12 
44.9326  8 
44.9822  8 
45.0318  9 
45.0814  5 
 45.131  8 
45.1807 13 
45.2303  9 
45.2799 14 
45.3295 12 
45.3791  3 
45.4288 10 
45.4784  6 
 45.528  7 
45.5776 12 
45.6272  8 
45.6769 14 
45.7265  9 
45.7761  5 
45.8257 10 
45.8753  7 
 45.925  6 
45.9746 14 
46.0242  9 
46.0738 11 
46.1234 11 
46.1731 16 
46.2227  8 
46.2723 12 
46.3219  7 
46.3715  5 
46.4212  7 
46.4708 15 
46.5204 12 
  46.57 11 
46.6196  7 
46.6693 11 
46.7189 20 
46.7685  9 
46.8181 11 
46.8677  7 
46.9174 10 
 46.967  8 
47.0166  9 
47.0662  9 
47.1158 10 
47.1655 14 
47.2151  6 
47.2647 12 
47.3143 13 
47.3639 12 
47.4136  8 
47.4632 12 
47.5128 11 
47.5624 10 
 47.612 11 
47.6617 10 
47.7113 16 
47.7609  7 
47.8105  5 
47.8601 14 
47.9098  7 
47.9594 12 
 48.009  8 
48.0586 11 
48.1082  4 
48.1579  8 
48.2075  8 
48.2571 11 
48.3067 10 
48.3563 10 
 48.406  6 
48.4556 10 
48.5052 10 
48.5548  5 
48.6044 10 
48.6541  6 
48.7037  6 
48.7533  8 
48.8029 10 
48.8525  6 
48.9022 13 
48.9518 10 
49.0014 16 
 49.051  8 
49.1006  6 
49.1503  9 
49.1999 10 
49.2495 10 
49.2991  4 
49.3487  4 
49.3984 16 
 49.448  5 
49.4976 11 
49.5472  7 
49.5968 11 
49.6465  4 
49.6961  9 
49.7457 11 
49.7953  7 
49.8449 11 
49.8946 10 
49.9442 11 
49.9938 11 
50.0434  7 
 50.093 11 
50.1427 19 
50.1923 15 
50.2419 11 
50.2915 12 
50.3411  6 
50.3908 11 
50.4404 10 
  50.49  8 
50.5396 11 
50.5892 11 
50.6389  4 
50.6885 15 
50.7381  9 
50.7877  6 
50.8373  9 
 50.887 14 
50.9366 12 
50.9862  7 
51.0358  7 
51.0854 12 
51.1351  8 
51.1847 10 
51.2343 21 
51.2839 14 
51.3335 40 
51.3832 73 
51.4328 142 
51.4824 157 
 51.532 100 
51.5816 60 
51.6313 22 
51.6809 29 
51.7305 26 
51.7801  8 
51.8297  7 
51.8794 16 
 51.929 18 
51.9786 18 
52.0282 14 
52.0778 17 
52.1275 15 
52.1771  9 
52.2267 11 
52.2763 18 
52.3259  7 
52.3756 16 
52.4252  9 
52.4748 10 
52.5244  9 
 52.574 12 
52.6237 10 
52.6733  9 
52.7229 13 
52.7725 14 
52.8221 10 
52.8718 10 
52.9214  6 
 52.971  6 
53.0206 14 
53.0702  8 
53.1199  5 
53.1695 11 
53.2191 12 
53.2687 10 
53.3183 13 
 53.368  7 
53.4176  9 
53.4672  6 
53.5168  9 
53.5664  4 
53.6161  6 
53.6657  6 
53.7153  6 
53.7649 11 
53.8145 13 
53.8642 10 
53.9138  8 
53.9634  7 
 54.013 10 
54.0626  8 
54.1123  7 
54.1619 14 
54.2115 10 
54.2611 11 
54.3107  9 
54.3604 11 
  54.41 12 
54.4596 14 
54.5092 33 
54.5588 14 
54.6085 16 
54.6581 16 
54.7077 10 
54.7573  9 
 54.807  5 
54.8566 15 
54.9062  7 
54.9558  5 
55.0054  8 
55.0551  8 
55.1047 11 
55.1543  6 
55.2039 13 
55.2535  7 
55.3032 13 
55.3528 12 
55.4024  4 
 55.452  8 
55.5016 10 
55.5513 10 
55.6009  2 
55.6505  6 
55.7001 13 
55.7497  8 
55.7994 13 
 55.849  9 
55.8986  6 
55.9482  4 
55.9978  6 
56.0475  9 
56.0971  6 
56.1467  9 
56.1963  5 
56.2459 13 
56.2956 13 
56.3452  8 
56.3948 14 
56.4444  3 
 56.494  4 
56.5437  4 
56.5933  9 
56.6429 11 
56.6925 10 
56.7421 14 
56.7918  7 
56.8414 11 
 56.891 15 
56.9406  7 
56.9902  6 
57.0399 10 
57.0895  8 
57.1391  6 
57.1887  8 
57.2383  9 
 57.288  3 
57.3376 10 
57.3872 12 
57.4368 10 
57.4864  8 
57.5361 14 
57.5857 11 
57.6353  8 
57.6849 11 
57.7345  8 
57.7842 14 
57.8338 12 
57.8834  6 
 57.933 10 
57.9826  7 
58.0323 11 
58.0819 12 
58.1315  7 
58.1811 12 
58.2307  6 
58.2804  7 
  58.33 11 
58.3796  9 
58.4292  6 
58.4788  8 
58.5285 11 
58.5781 10 
58.6277  8 
58.6773 11 
58.7269  8 
58.7766 18 
58.8262 14 
58.8758 10 
58.9254  8 
 58.975  6 
59.0247 10 
59.0743  4 
59.1239 11 
59.1735 12 
59.2231  5 
59.2728  4 
59.3224  6 
 59.372  8 
59.4216 12 
59.4712  9 
59.5209 11 
59.5705 10 
59.6201  9 
59.6697 10 
59.7193 10 
 59.769 13 
59.8186  7 
59.8682 12 
59.9178 11 
59.9674 10 
60.0171  8 
60.0667 12 
60.1163  6 
60.1659  4 
60.2155  6 
60.2652 12 
60.3148  4 
60.3644  9 
 60.414 11 
60.4636 14 
60.5133 10 
60.5629 17 
60.6125 13 
60.6621 19 
60.7117 21 
60.7614 14 
 60.811 20 
60.8606 18 
60.9102 13 
60.9598  5 
61.0095 13 
61.0591 10 
61.1087 15 
61.1583 16 
61.2079 10 
61.2576 14 
61.3072 19 
61.3568 18 
61.4064 24 
 61.456 21 
61.5057 28 
61.5553 27 
61.6049 13 
61.6545 17 
61.7041 19 
61.7538 17 
61.8034 15 
 61.853 14 
61.9026 15 
61.9522 10 
62.0019  5 
62.0515 13 
62.1011 16 
62.1507 11 
62.2003  6 
  62.25  6 
62.2996  5 
62.3492  8 
62.3988 10 
62.4484  7 
62.4981 10 
62.5477 14 
62.5973 10 
62.6469 16 
62.6965 10 
62.7462 13 
62.7958  6 
62.8454  9 
 62.895 10 
62.9446  6 
62.9943 10 
63.0439 13 
63.0935 20 
63.1431  9 
63.1927 12 
63.2424 12 
 63.292 13 
63.3416 13 
63.3912 17 
63.4408 11 
63.4905 12 
63.5401 13 
63.5897 10 
63.6393  9 
63.6889 12 
63.7386  7 
63.7882 14 
63.8378 15 
63.8874 10 
 63.937 10 
63.9867 10 
64.0363 14 
64.0859  4 
64.1355 17 
64.1851 13 
64.2348 23 
64.2844 14 
 64.334 16 
64.3836 12 
64.4332 14 
64.4829  9 
64.5325 11 
64.5821  7 
64.6317  8 
64.6814 16 
 64.731 10 
64.7806 10 
64.8302 13 
64.8798  9 
64.9295  4 
64.9791 13 
65.0287 12 
65.0783 10 
65.1279 13 
65.1776 15 
65.2272 13 
65.2768 22 
65.3264 38 
 65.376 52 
65.4257 67 
65.4753 60 
65.5249 45 
65.5745 41 
65.6241 33 
65.6738 32 
65.7234 20 
 65.773 15 
65.8226 11 
65.8722 16 
65.9219  9 
65.9715 14 
66.0211  9 
66.0707 17 
66.1203 12 
  66.17 10 
66.2196 11 
66.2692 13 
66.3188 12 
66.3684  8 
66.4181 15 
66.4677 14 
66.5173  8 
66.5669 11 
66.6165 12 
66.6662 11 
66.7158  8 
66.7654  9 
 66.815  9 
66.8646 14 
66.9143  8 
66.9639 14 
67.0135 14 
67.0631  6 
67.1127 10 
67.1624 11 
 67.212 11 
67.2616  8 
67.3112  2 
67.3608 13 
67.4105  8 
67.4601  9 
67.5097  9 
67.5593  4 
67.6089 11 
67.6586  6 
67.7082 14 
67.7578  5 
67.8074  6 
 67.857  7 
67.9067  4 
67.9563  6 
68.0059 12 
68.0555 10 
68.1051  4 
68.1548  4 
68.2044 10 
 68.254  6 
68.3036 11 
68.3532  9 
68.4029 14 
68.4525 16 
68.5021 12 
68.5517  8 
68.6013  9 
 68.651  7 
68.7006 10 
68.7502  6 
68.7998 10 
68.8494  7 
68.8991 13 
68.9487  6 
68.9983 11 
69.0479 15 
69.0975  5 
69.1472  8 
69.1968  6 
69.2464  9 
 69.296  9 
69.3456  9 
69.3953  7 
69.4449  8 
69.4945  5 
69.5441  6 
69.5937  9 
69.6434  6 
 69.693 11 
69.7426  7 
69.7922 10 
69.8418 15 
69.8915  4 
69.9411  9 
69.9907 12 
70.0403  9 
70.0899  8 
70.1396  9 
70.1892 10 
70.2388 10 
70.2884  8 
 70.338  5 
70.3877  5 
70.4373 10 
70.4869  9 
70.5365  8 
70.5861  7 
70.6358 10 
70.6854  7 
 70.735 12 
70.7846  9 
70.8342 11 
70.8839  7 
70.9335 11 
70.9831  9 
71.0327  5 
71.0823 11 
 71.132  9 
71.1816  6 
71.2312 10 
71.2808  7 
71.3304  6 
71.3801  9 
71.4297 10 
71.4793  3 
71.5289  6 
71.5785 12 
71.6282 14 
71.6778  6 
71.7274 11 
 71.777  9 
71.8266 13 
71.8763  6 
71.9259  8 
71.9755  8 
72.0251  7 
72.0747  9 
72.1244  7 
 72.174  5 
72.2236 12 
72.2732  7 
72.3228  7 
72.3725  4 
72.4221 10 
72.4717  1 
72.5213  9 
72.5709 11 
72.6206 11 
72.6702  5 
72.7198  7 
72.7694  5 
 72.819 13 
72.8687 12 
72.9183  8 
72.9679  5 
73.0175  6 
73.0671  4 
73.1168 11 
73.1664  5 
 73.216  8 
73.2656  8 
73.3152 10 
73.3649  5 
73.4145  6 
73.4641  8 
73.5137  9 
73.5633  8 
 73.613  9 
73.6626 10 
73.7122  8 
73.7618 15 
73.8114  8 
73.8611 18 
73.9107  8 
73.9603 11 
74.0099 11 
74.0595  8 
74.1092 14 
74.1588 11 
74.2084  3 
 74.258  4 
74.3076  7 
74.3573  6 
74.4069  8 
74.4565 11 
74.5061  8 
74.5558  7 
74.6054  8 
 74.655  9 
74.7046 10 
74.7542  8 
74.8039 10 
74.8535  5 
74.9031  8 
74.9527  3 
75.0023 11 
 75.052  7 
75.1016  6 
75.1512  9 
75.2008  7 
75.2504 10 
75.3001 14 
75.3497  7 
75.3993  5 
75.4489 14 
75.4985  7 
75.5482 12 
75.5978  8 
75.6474  9 
 75.697  7 
75.7466  7 
75.7963  6 
75.8459  8 
75.8955  4 
75.9451  6 
75.9947  8 
76.0444 15 
 76.094 10 
76.1436  7 
76.1932 12 
76.2428  9 
76.2925 10 
76.3421  7 
76.3917  5 
76.4413  4 
76.4909  4 
76.5406 11 
76.5902  2 
76.6398  8 
76.6894  6 
 76.739  5 
76.7887  6 
76.8383  6 
76.8879  7 
76.9375  6 
76.9871 10 
77.0368  6 
77.0864  6 
 77.136 12 
77.1856 12 
77.2352 17 
77.2849  5 
77.3345 19 
77.3841 14 
77.4337 15 
77.4833 10 
 77.533 17 
77.5826 11 
77.6322 11 
77.6818 10 
77.7314  9 
77.7811 10 
77.8307 11 
77.8803  6 
77.9299 12 
77.9795  9 
78.0292  9 
78.0788 10 
78.1284 19 
 78.178 20 
78.2276 12 
78.2773 12 
78.3269 18 
78.3765 12 
78.4261  8 
78.4757 12 
78.5254  8 
 78.575  9 
78.6246  4 
78.6742  6 
78.7238  3 
78.7735  9 
78.8231  7 
78.8727  7 
78.9223 11 
78.9719  6 
79.0216  9 
79.0712  6 
79.1208  7 
79.1704  8 
  79.22  7 
79.2697  9 
79.3193 10 
79.3689  7 
79.4185 11 
79.4681  3 
79.5178  8 
79.5674  4 
 79.617 12 
79.6666  9 
79.7162  7 
79.7659  9 
79.8155  5 
79.8651  6 
79.9147  4 
79.9643  7 
 80.014 12 
