10 121 
10.0496 100 
10.0992  88 
10.1489  96 
10.1985  77 
10.2481 101 
10.2977  83 
10.3473  87 
 10.397  77 
10.4466  88 
10.4962  79 
10.5458  92 
10.5954  91 
10.6451  77 
10.6947  78 
10.7443  80 
10.7939  87 
10.8435  85 
10.8932  74 
10.9428  87 
10.9924  84 
 11.042  67 
11.0916  65 
11.1413  80 
11.1909  72 
11.2405  77 
11.2901  53 
11.3397  78 
11.3894  63 
 11.439  60 
11.4886  59 
11.5382  75 
11.5878  64 
11.6375  62 
11.6871  67 
11.7367  57 
11.7863  46 
11.8359  48 
11.8856  62 
11.9352  54 
11.9848  70 
12.0344  61 
 12.084  64 
12.1337  68 
12.1833  54 
12.2329  48 
12.2825  62 
12.3321  63 
12.3818  45 
12.4314  38 
 12.481  59 
12.5306  50 
12.5802  51 
12.6299  43 
12.6795  46 
12.7291  42 
12.7787  49 
12.8283  41 
 12.878  36 
12.9276  48 
12.9772  45 
13.0268  48 
13.0764  46 
13.1261  49 
13.1757  50 
13.2253  49 
13.2749  42 
13.3245  40 
13.3742  40 
13.4238  54 
13.4734  49 
 13.523  50 
13.5726  56 
13.6223  57 
13.6719  50 
13.7215  55 
13.7711  69 
13.8207 104 
13.8704  78 
  13.92 112 
13.9696 145 
14.0192 216 
14.0688 397 
14.1185 1697 
14.168110228 
14.217713906 
14.2673 1515 
14.3169 326 
14.3666 158 
14.4162 110 
14.4658  86 
14.5154  50 
 14.565  56 
14.6147  61 
14.6643  46 
14.7139  51 
14.7635  36 
14.8131  34 
14.8628  37 
14.9124  28 
 14.962  33 
15.0116  39 
15.0613  43 
15.1109  41 
15.1605  35 
15.2101  30 
15.2597  36 
15.3094  33 
 15.359  33 
15.4086  23 
15.4582  25 
15.5078  27 
15.5575  28 
15.6071  27 
15.6567  24 
15.7063  24 
15.7559  23 
15.8056  37 
15.8552  29 
15.9048  30 
15.9544  24 
 16.004  41 
16.0537  17 
16.1033  38 
16.1529  31 
16.2025  22 
16.2521  29 
16.3018  32 
16.3514  28 
 16.401  29 
16.4506  17 
16.5002  28 
16.5499  25 
16.5995  22 
16.6491  21 
16.6987  24 
16.7483  24 
 16.798  22 
16.8476  26 
16.8972  20 
16.9468  29 
16.9964  24 
17.0461  20 
17.0957  26 
17.1453  14 
17.1949  31 
17.2445  27 
17.2942  24 
17.3438  21 
17.3934  30 
 17.443  23 
17.4926  25 
17.5423  20 
17.5919  25 
17.6415  25 
17.6911  26 
17.7407  25 
17.7904  32 
  17.84  21 
17.8896  24 
17.9392  21 
17.9888  29 
18.0385  23 
18.0881  18 
18.1377  22 
18.1873  21 
18.2369  27 
18.2866  18 
18.3362  32 
18.3858  30 
18.4354  20 
 18.485  27 
18.5347  18 
18.5843  22 
18.6339  20 
18.6835  17 
18.7331  26 
18.7828  16 
18.8324  17 
 18.882  23 
18.9316  13 
18.9812  26 
19.0309  24 
19.0805  17 
19.1301  23 
19.1797  29 
19.2293  23 
 19.279  22 
19.3286  17 
19.3782  25 
19.4278  28 
19.4774  19 
19.5271  30 
19.5767  22 
19.6263  22 
19.6759  20 
19.7255  27 
19.7752  26 
19.8248  23 
19.8744  26 
 19.924  22 
19.9736  31 
20.0233  27 
20.0729  26 
20.1225  25 
20.1721  30 
20.2217  24 
20.2714  24 
 20.321  16 
20.3706  20 
20.4202  23 
20.4698  17 
20.5195  23 
20.5691  32 
20.6187  18 
20.6683  20 
20.7179  28 
20.7676  28 
20.8172  21 
20.8668  16 
20.9164  20 
 20.966  15 
21.0157  23 
21.0653  18 
21.1149  17 
21.1645  18 
21.2141  26 
21.2638  21 
21.3134  26 
 21.363  24 
21.4126  28 
21.4622  19 
21.5119  26 
21.5615  19 
21.6111  25 
21.6607  17 
21.7103  22 
  21.76  16 
21.8096  31 
21.8592  22 
21.9088  33 
21.9584  17 
22.0081  23 
22.0577  32 
22.1073  20 
22.1569  32 
22.2065  18 
22.2562  24 
22.3058  17 
22.3554  21 
 22.405  18 
22.4546  27 
22.5043  23 
22.5539  27 
22.6035  30 
22.6531  21 
22.7027  23 
22.7524  26 
 22.802  26 
22.8516  21 
22.9012  29 
22.9508  31 
23.0005  35 
23.0501  22 
23.0997  19 
23.1493  30 
23.1989  29 
23.2486  32 
23.2982  26 
23.3478  28 
23.3974  16 
 23.447  28 
23.4967  22 
23.5463  18 
23.5959  16 
23.6455  18 
23.6951  25 
23.7448  15 
23.7944  17 
 23.844  20 
23.8936  27 
23.9432  20 
23.9929  21 
24.0425  22 
24.0921  21 
24.1417  28 
24.1913  21 
 24.241  18 
24.2906  28 
24.3402  28 
24.3898  21 
24.4394  13 
24.4891  19 
24.5387  24 
24.5883  22 
24.6379  20 
24.6875  33 
24.7372  25 
24.7868  24 
24.8364  27 
 24.886  27 
24.9357  25 
24.9853  23 
25.0349  27 
25.0845  19 
25.1341  18 
25.1838  24 
25.2334  23 
 25.283  23 
25.3326  26 
25.3822  15 
25.4319  19 
25.4815  28 
25.5311  26 
25.5807  29 
25.6303  21 
  25.68  19 
25.7296  26 
25.7792  28 
25.8288  18 
25.8784  23 
25.9281  26 
25.9777  22 
26.0273  25 
26.0769  21 
26.1265  26 
26.1762  35 
26.2258  18 
26.2754  32 
 26.325  44 
26.3746  54 
26.4243  97 
26.4739 156 
26.5235 121 
26.5731  63 
26.6227  50 
26.6724  46 
 26.722  35 
26.7716  28 
26.8212  34 
26.8708  28 
26.9205  14 
26.9701  25 
27.0197  30 
27.0693  32 
27.1189  28 
27.1686  24 
27.2182  36 
27.2678  26 
27.3174  19 
 27.367  22 
27.4167  26 
27.4663  30 
27.5159  15 
27.5655  28 
27.6151  28 
27.6648  26 
27.7144  28 
 27.764  24 
27.8136  28 
27.8632  37 
27.9129  32 
27.9625  37 
28.0121  26 
28.0617  34 
28.1113  41 
 28.161  51 
28.2106  64 
28.2602  72 
28.3098  83 
28.3594 116 
28.4091 132 
28.4587 270 
28.5083 973 
28.5579 6967 
28.607512067 
28.6572 1986 
28.7068 360 
28.7564 144 
 28.806  91 
28.8556  81 
28.9053  57 
28.9549  61 
29.0045  51 
29.0541  43 
29.1037  43 
29.1534  33 
 29.203  28 
29.2526  25 
29.3022  26 
29.3518  37 
29.4015  34 
29.4511  17 
29.5007  21 
29.5503  29 
29.5999  24 
29.6496  23 
29.6992  23 
29.7488  21 
29.7984  29 
 29.848  35 
29.8977  23 
29.9473  24 
29.9969  25 
30.0465  22 
30.0961  19 
30.1458  21 
30.1954  29 
 30.245  24 
30.2946  15 
30.3442  19 
30.3939  14 
30.4435  19 
30.4931  19 
30.5427  21 
30.5923  17 
 30.642  22 
30.6916  18 
30.74128 
30.7908  18 
30.8404  27 
30.8901  16 
30.9397  18 
30.9893  19 
31.0389  17 
31.0885  13 
31.1382  18 
31.1878  24 
31.2374  20 
 31.287  14 
31.3366  18 
31.3863  20 
31.4359  20 
31.4855  22 
31.5351  15 
31.5847  15 
31.6344  20 
 31.684  19 
31.7336  20 
31.7832  19 
31.8328  12 
31.8825  17 
31.9321  10 
31.9817  22 
32.0313  38 
32.0809  30 
32.1306  18 
32.1802  22 
32.2298  11 
32.2794  19 
 32.329  15 
32.3787  19 
32.4283  11 
32.4779  18 
32.5275  13 
32.5771  16 
32.6268  14 
32.6764  14 
 32.726  20 
32.7756  17 
32.8252  16 
32.8749  20 
32.9245  17 
32.9741  14 
33.0237  24 
33.0733  15 
 33.123  21 
33.1726  19 
33.2222  24 
33.2718  13 
33.3214  14 
33.3711  14 
33.4207  28 
33.4703  14 
33.5199  32 
33.5695  42 
33.6192  43 
33.6688  54 
33.7184  48 
 33.768  45 
33.8176  31 
33.8673  32 
33.9169  27 
33.9665  14 
34.0161  25 
34.0657  15 
34.1154  13 
 34.165  20 
34.2146  11 
34.2642  14 
34.3138  13 
34.3635  25 
34.4131  15 
34.4627  14 
34.5123  17 
34.5619  10 
34.6116  14 
34.66128 
34.7108  19 
34.7604  12 
  34.81  12 
34.85979 
34.9093  13 
34.95898 
35.0085  11 
35.0582  19 
35.1078  13 
35.1574  13 
 35.207  13 
35.2566  18 
35.3063  10 
35.3559  11 
35.40559 
35.4551  13 
35.5047  15 
35.5544  19 
 35.604  13 
35.6536  15 
35.7032  17 
35.7528  12 
35.8025  14 
35.8521  14 
35.9017  19 
35.9513  18 
36.0009  14 
36.05068 
36.10026 
36.1498  17 
36.1994  11 
 36.249  17 
36.2987  15 
36.3483  14 
36.39798 
36.4475  18 
36.4971  10 
36.5468  11 
36.5964  15 
 36.646  12 
36.6956  10 
36.7452  10 
36.79499 
36.8445  10 
36.8941  15 
36.9437  16 
36.9933  14 
 37.043  12 
37.0926  13 
37.1422  17 
37.1918  10 
37.2414  11 
37.2911  18 
37.3407  19 
37.3903  17 
37.4399  20 
37.4895  18 
37.5392  34 
37.5888  51 
37.6384  75 
 37.688 114 
37.7376  90 
37.7873  59 
37.8369  48 
37.8865  33 
37.9361  20 
37.9857  16 
38.0354  13 
 38.085  13 
38.1346  11 
38.1842  14 
38.2338  12 
38.28357 
38.3331  12 
38.3827  13 
38.43238 
38.48198 
38.5316  11 
38.5812  11 
38.6308  10 
38.68049 
  38.73  12 
38.7797  14 
38.8293  14 
38.87899 
38.92853 
38.9781  13 
39.0278  13 
39.0774  10 
 39.1279 
39.1766  17 
39.2262  13 
39.2759  14 
39.3255  11 
39.37519 
39.4247  15 
39.47437 
 39.5246 
39.57369 
39.6232  11 
39.6728  12 
39.72246 
39.7721  15 
39.8217  20 
39.8713  13 
39.9209  10 
39.9705  11 
40.0202  13 
40.06987 
40.1194  11 
 40.169  10 
40.2186  10 
40.2683  11 
40.31799 
40.3675  13 
40.4171  11 
40.4667  13 
40.5164  15 
 40.566  15 
40.6156  13 
40.6652  13 
40.7148  14 
40.7645  24 
40.8141  32 
40.8637  68 
40.9133  45 
40.9629  15 
41.0126  11 
41.0622  17 
41.11187 
41.1614  11 
 41.2118 
41.2607  12 
41.31035 
41.3599  10 
41.4095  13 
41.45918 
41.5088  12 
41.5584  17 
 41.608  11 
41.65767 
41.7072  10 
41.7569  10 
41.8065  13 
41.8561  14 
41.90576 
41.95537 
 42.005  11 
42.05468 
42.1042  12 
42.15387 
42.2034  10 
42.25315 
42.3027  15 
42.3523  11 
42.4019  13 
42.4515  14 
42.50125 
42.55088 
42.6004  12 
  42.65  10 
42.69969 
42.7493  15 
42.7989  14 
42.8485  14 
42.89817 
42.9477  13 
42.9974  15 
 43.047  17 
43.09666 
43.1462  19 
43.1958  14 
43.2455  11 
43.2951  12 
43.3447  15 
43.3943  50 
43.4439 221 
43.4936 228 
43.5432  54 
43.5928  23 
43.6424  22 
 43.692  10 
43.7417  25 
43.7913  12 
43.8409  10 
43.8905  15 
43.9401  12 
43.9898  13 
44.03948 
 44.0899 
44.1386  10 
44.1882  11 
44.2379  15 
44.2875  11 
44.33719 
44.38676 
44.43638 
 44.486  11 
44.5356  13 
44.58529 
44.6348  12 
44.68448 
44.7341  21 
44.78377 
44.8333  13 
44.8829  10 
44.9326  10 
44.9822  13 
45.03185 
45.0814  13 
 45.131  12 
45.1807  10 
45.23039 
45.2799  15 
45.3295  14 
45.37917 
45.42888 
45.4784  17 
 45.528  12 
45.57764 
45.6272  15 
45.6769  13 
45.72659 
45.7761  11 
45.82574 
45.87538 
 45.925  14 
45.97469 
46.0242  11 
46.07389 
46.1234  12 
46.17318 
46.22278 
46.27239 
46.3219  11 
46.37157 
46.4212  12 
46.4708  11 
46.5204  14 
  46.57  10 
46.6196  10 
46.6693  18 
46.7189  12 
46.7685  11 
46.81816 
46.86778 
46.91749 
 46.9675 
47.01669 
47.06628 
47.1158  12 
47.1655  10 
47.2151  10 
47.26479 
47.31437 
47.36397 
47.41369 
47.46328 
47.5128  16 
47.5624  10 
 47.6129 
47.66179 
47.71138 
47.76099 
47.8105  13 
47.8601  11 
47.9098  16 
47.95949 
 48.0098 
48.05867 
48.10827 
48.1579  11 
48.20757 
48.25718 
48.3067  12 
48.35638 
 48.4068 
48.45569 
48.5052  11 
48.55488 
48.60449 
48.6541  11 
48.70375 
48.75339 
48.8029  13 
48.8525  13 
48.9022  10 
48.95186 
49.00145 
 49.051  11 
49.10068 
49.15037 
49.19999 
49.2495  13 
49.2991  10 
49.34875 
49.3984  11 
 49.4488 
49.49767 
49.54726 
49.5968  12 
49.6465  13 
49.69617 
49.74575 
49.79538 
49.84499 
49.8946  13 
49.9442  13 
49.9938  10 
50.0434  10 
 50.0939 
50.1427  14 
50.19236 
50.24199 
50.29155 
50.34119 
50.3908  11 
50.4404  14 
  50.494 
50.5396  10 
50.58924 
50.63898 
50.6885  11 
50.73818 
50.78773 
50.83739 
 50.887  11 
50.93669 
50.98628 
51.03589 
51.0854  15 
51.1351  10 
51.1847  22 
51.2343  13 
51.2839  29 
51.3335  34 
51.3832  80 
51.4328 140 
51.4824 155 
 51.532  92 
51.5816  56 
51.6313  41 
51.6809  23 
51.7305  24 
51.7801  10 
51.8297  13 
51.8794  14 
 51.929  12 
51.9786  14 
52.02828 
52.0778  10 
52.1275  11 
52.17714 
52.22677 
52.27635 
52.3259  13 
52.37569 
52.42528 
52.4748  10 
52.5244  12 
 52.574  10 
52.62377 
52.6733  10 
52.7229  11 
52.7725  10 
52.8221  11 
52.8718  10 
52.92148 
 52.971  14 
53.02068 
53.07023 
53.11996 
53.16956 
53.21919 
53.26878 
53.3183  10 
 53.3686 
53.4176  12 
53.4672  10 
53.51688 
53.56649 
53.6161  17 
53.66578 
53.7153  15 
53.7649  11 
53.8145  11 
53.86429 
53.91387 
53.9634  15 
 54.0138 
54.0626  12 
54.11237 
54.1619  10 
54.2115  16 
54.2611  10 
54.3107  15 
54.3604  12 
  54.41  20 
54.4596  16 
54.5092  12 
54.5588  23 
54.60859 
54.6581  10 
54.7077  10 
54.7573  13 
 54.807  11 
54.85668 
54.9062  12 
54.95585 
55.00549 
55.0551  14 
55.1047  13 
55.15437 
55.20398 
55.2535  15 
55.30326 
55.3528  11 
55.40248 
 55.4528 
55.5016  15 
55.5513  11 
55.60099 
55.6505  12 
55.70019 
55.74976 
55.7994  13 
 55.849  10 
55.89866 
55.9482  15 
55.9978  14 
56.0475  10 
56.09718 
56.14679 
56.1963  17 
56.24594 
56.2956  13 
56.3452  11 
56.3948  10 
56.44448 
 56.494  14 
56.54377 
56.5933  10 
56.6429  10 
56.69256 
56.7421  12 
56.7918  10 
56.84148 
 56.8919 
56.9406  11 
56.99025 
57.03996 
57.0895  18 
57.1391  12 
57.18875 
57.23837 
 57.288  11 
57.3376  12 
57.3872  23 
57.4368  19 
57.4864  12 
57.53617 
57.58577 
57.63539 
57.68497 
57.7345  10 
57.78429 
57.83385 
57.88347 
 57.933  14 
57.9826  15 
58.03238 
58.08199 
58.1315  11 
58.1811  15 
58.2307  10 
58.2804  10 
  58.33  14 
58.3796  10 
58.4292  14 
58.47885 
58.5285  12 
58.5781  13 
58.6277  13 
58.6773  12 
58.7269  10 
58.77667 
58.8262  15 
58.8758  16 
58.9254  25 
 58.975  17 
59.0247  29 
59.0743  41 
59.1239 211 
59.1735 382 
59.2231 156 
59.2728  53 
59.3224  18 
 59.372  18 
59.4216  18 
59.4712  16 
59.5209  14 
59.57057 
59.62019 
59.6697  13 
59.7193  10 
 59.7698 
59.8186  17 
59.8682  11 
59.9178  15 
59.96748 
60.01718 
60.0667  10 
60.11639 
60.1659  12 
60.2155  10 
60.26529 
60.3148  15 
60.3644  17 
 60.4146 
60.4636  11 
60.51337 
60.56299 
60.6125  10 
60.6621  14 
60.7117  14 
60.7614  12 
 60.8117 
60.86062 
60.9102  13 
60.9598  15 
61.0095  16 
61.05917 
61.1087  17 
61.15839 
61.2079  14 
61.2576  19 
61.3072  16 
61.3568  14 
61.4064  31 
 61.456  24 
61.5057  26 
61.5553  40 
61.6049  23 
61.6545  18 
61.7041  15 
61.7538  14 
61.8034  16 
 61.8539 
61.9026  10 
61.9522  11 
62.0019  13 
62.0515  12 
62.1011  10 
62.1507  14 
62.20036 
  62.255 
62.2996  13 
62.34927 
62.3988  15 
62.44849 
62.4981  13 
62.5477  10 
62.59735 
62.6469  13 
62.69657 
62.7462  14 
62.7958  10 
62.84548 
 62.895  10 
62.94465 
62.99434 
63.04399 
63.09359 
63.1431  10 
63.1927  12 
63.24248 
 63.292  10 
63.34164 
63.3912  10 
63.4408  20 
63.4905  12 
63.5401  12 
63.58973 
63.63939 
63.6889  11 
63.7386  15 
63.78827 
63.83786 
63.8874  12 
 63.937  13 
63.9867  13 
64.0363  12 
64.0859  10 
64.1355  20 
64.1851  14 
64.2348  17 
64.2844  12 
 64.334  13 
64.3836  10 
64.43329 
64.4829  14 
64.5325  11 
64.58217 
64.63177 
64.6814  11 
 64.731  12 
64.78067 
64.83029 
64.87984 
64.9295  16 
64.9791  11 
65.0287  14 
65.0783  18 
65.12798 
65.1776  12 
65.2272  15 
65.2768  23 
65.3264  28 
 65.376  59 
65.4257  74 
65.4753  81 
65.5249  49 
65.5745  52 
65.6241  24 
65.6738  22 
65.7234  28 
 65.773  15 
65.8226  10 
65.8722  17 
65.9219  10 
65.9715  16 
66.0211  11 
66.0707  15 
66.1203  17 
  66.179 
66.2196  11 
66.2692  11 
66.31888 
66.3684  10 
66.4181  10 
66.4677  20 
66.5173  12 
66.56697 
66.61659 
66.66629 
66.7158  10 
66.7654  10 
 66.8158 
66.86469 
66.9143  11 
66.9639  13 
67.0135  11 
67.0631  11 
67.11278 
67.16247 
 67.212  11 
67.26165 
67.31125 
67.36085 
67.41056 
67.46017 
67.50975 
67.55938 
67.60895 
67.65867 
67.70825 
67.75787 
67.80746 
 67.8578 
67.90676 
67.9563  11 
68.0059  13 
68.05557 
68.10516 
68.15487 
68.20447 
 68.2547 
68.3036  12 
68.35329 
68.40294 
68.45254 
68.50218 
68.55179 
68.60137 
 68.651  14 
68.7006  14 
68.7502  16 
68.79989 
68.84945 
68.8991  13 
68.94877 
68.99832 
69.0479  10 
69.0975  14 
69.14729 
69.19689 
69.2464  13 
 69.2969 
69.34569 
69.3953  14 
69.4449  15 
69.49454 
69.54419 
69.59374 
69.64345 
 69.6937 
69.7426  14 
69.7922  13 
69.8418  11 
69.8915  13 
69.9411  13 
69.99078 
70.0403  12 
70.08996 
70.1396  10 
70.18924 
70.23889 
70.28847 
 70.3389 
70.38778 
70.43739 
70.4869  10 
70.5365  13 
70.5861  13 
70.63589 
70.68548 
 70.7357 
70.7846  12 
70.8342  14 
70.88399 
70.9335  12 
70.98317 
71.03277 
71.08235 
 71.132  14 
71.18167 
71.23125 
71.28089 
71.33048 
71.38016 
71.4297  12 
71.47938 
71.5289  11 
71.57857 
71.62827 
71.67788 
71.7274  17 
 71.7778 
71.82668 
71.87638 
71.92599 
71.97558 
72.02516 
72.07476 
72.1244  10 
 72.1749 
72.22368 
72.2732  12 
72.32287 
72.37255 
72.4221  11 
72.4717  10 
72.52134 
72.57094 
72.6206  10 
72.67029 
72.71988 
72.76946 
 72.8191 
72.86879 
72.91835 
72.96794 
73.01756 
73.06715 
73.1168  15 
73.1664  11 
 73.2168 
73.26569 
73.31523 
73.36496 
73.41457 
73.46417 
73.51374 
73.56334 
 73.6138 
73.66267 
73.7122  12 
73.76188 
73.81144 
73.86119 
73.91075 
73.96039 
74.00997 
74.0595  11 
74.10925 
74.15883 
74.20848 
 74.2588 
74.30766 
74.35739 
74.40698 
74.45652 
74.50616 
74.55584 
74.60546 
 74.655  12 
74.70469 
74.7542  10 
74.80398 
74.8535  10 
74.90319 
74.95275 
75.00237 
 75.052  10 
75.1016  16 
75.15125 
75.20087 
75.25048 
75.3001  10 
75.34978 
75.3993  10 
75.44896 
75.49857 
75.54827 
75.59787 
75.64749 
 75.6978 
75.7466  17 
75.79638 
75.8459  17 
75.89554 
75.9451  10 
75.99477 
76.04446 
 76.0945 
76.14368 
76.1932  11 
76.2428  10 
76.29256 
76.34216 
76.3917  16 
76.44134 
76.49098 
76.5406  12 
76.59026 
76.6398  11 
76.68948 
 76.7395 
76.78874 
76.83839 
76.88799 
76.93754 
76.9871  12 
77.0368  12 
77.08648 
 77.1367 
77.18564 
77.23527 
77.28498 
77.33456 
77.3841  11 
77.43379 
77.48339 
 77.533  16 
77.58269 
77.63223 
77.68185 
77.73149 
77.7811  12 
77.83078 
77.88033 
77.9299  13 
77.9795  11 
78.0292  12 
78.0788  11 
78.1284  13 
 78.178  25 
78.2276  13 
78.2773  12 
78.3269  14 
78.37658 
78.4261  15 
78.47578 
78.52548 
 78.575  10 
78.62467 
78.6742  12 
78.72384 
78.77355 
78.82316 
78.87278 
78.92234 
78.97194 
79.02162 
79.07125 
79.12084 
79.1704  10 
  79.22  11 
79.26977 
79.31938 
79.3689  11 
79.4185  10 
79.46819 
79.51788 
79.56746 
 79.6179 
79.66666 
79.7162  12 
79.76599 
79.81554 
79.86515 
79.91476 
79.96434 
 80.0147 
