10 90
10.0496 88
10.0992 90
10.1489 96
10.1985 85
10.2481 78
10.2977 99
10.3473 90
 10.397 93
10.4466 89
10.4962 80
10.5458 89
10.5954 82
10.6451 80
10.6947 85
10.7443 82
10.7939 78
10.8435 71
10.8932 75
10.9428 74
10.9924 68
 11.042 66
11.0916 76
11.1413 83
11.1909 80
11.2405 68
11.2901 62
11.3397 73
11.3894 62
 11.439 56
11.4886 75
11.5382 54
11.5878 57
11.6375 56
11.6871 56
11.7367 64
11.7863 49
11.8359 68
11.8856 53
11.9352 45
11.9848 65
12.0344 56
 12.084 50
12.1337 50
12.1833 47
12.2329 54
12.2825 46
12.3321 49
12.3818 62
12.4314 52
 12.481 54
12.5306 53
12.5802 50
12.6299 58
12.6795 54
12.7291 54
12.7787 46
12.8283 29
 12.878 42
12.9276 40
12.9772 39
13.0268 43
13.0764 38
13.1261 47
13.1757 41
13.2253 43
13.2749 57
13.3245 45
13.3742 35
13.4238 41
13.4734 34
 13.523 33
13.5726 40
13.6223 38
13.6719 42
13.7215 41
13.7711 39
13.8207 56
13.8704 62
  13.92 71
13.9696 116
14.0192 238
14.0688 659
14.11851260
14.1681 465
14.2177 105
14.2673 72
14.3169 45
14.3666 32
14.4162 41
14.4658 41
14.5154 41
 14.565 28
14.6147 38
14.6643 35
14.7139 36
14.7635 40
14.8131 33
14.8628 41
14.9124 30
 14.962 24
15.0116 30
15.0613 26
15.1109 28
15.1605 24
15.2101 31
15.2597 20
15.3094 28
 15.359 25
15.4086 27
15.4582 26
15.5078 36
15.5575 25
15.6071 21
15.6567 27
15.7063 35
15.7559 32
15.8056 20
15.8552 28
15.9048 20
15.9544 29
 16.004 14
16.0537 25
16.1033 25
16.1529 30
16.2025 17
16.2521 32
16.3018 15
16.3514 17
 16.401 28
16.4506 27
16.5002 20
16.5499 19
16.5995 20
16.6491 20
16.6987 21
16.7483 20
 16.798 24
16.8476 23
16.8972 25
16.9468 26
16.9964 35
17.0461 12
17.0957 32
17.1453 21
17.1949 21
17.2445 25
17.2942 28
17.3438 21
17.3934 24
 17.443 16
17.4926 23
17.5423 21
17.5919 19
17.6415 20
17.6911 25
17.7407 18
17.7904 24
  17.84 17
17.8896 20
17.9392 26
17.9888 29
18.0385 29
18.0881 24
18.1377 27
18.1873 23
18.2369 12
18.2866 26
18.3362 23
18.3858 16
18.4354 22
 18.485 25
18.5347 22
18.5843 24
18.6339 19
18.6835 30
18.7331 22
18.7828 19
18.8324 19
 18.882 21
18.9316 21
18.9812 18
19.0309 21
19.0805 23
19.1301 26
19.1797 15
19.2293 18
 19.279 17
19.3286 19
19.3782 22
19.4278 20
19.4774 15
19.5271 17
19.5767 26
19.6263 17
19.6759 22
19.7255 20
19.7752 24
19.8248 15
19.8744 21
 19.924 30
19.9736 31
20.0233 43
20.0729 34
20.1225 36
20.1721 18
20.2217 15
20.2714 19
 20.321 25
20.3706 18
20.4202 22
20.4698 16
20.5195 19
20.5691 22
20.6187 24
20.6683 30
20.7179 22
20.7676 23
20.8172 22
20.8668 28
20.9164 25
 20.966 24
21.0157 20
21.0653 22
21.1149 25
21.1645 28
21.2141 29
21.2638 25
21.3134 29
 21.363 21
21.4126 17
21.4622 20
21.5119 20
21.5615 14
21.6111 22
21.6607 16
21.7103 24
  21.76 20
21.8096 13
21.8592 25
21.9088 20
21.9584 20
22.0081 25
22.0577 17
22.1073 28
22.1569 17
22.2065 19
22.2562 27
22.3058 28
22.3554 32
 22.405 27
22.4546 19
22.5043 29
22.5539 12
22.6035 19
22.6531 18
22.7027 21
22.7524 15
 22.802 19
22.8516 28
22.9012 24
22.9508 17
23.0005 24
23.0501 25
23.0997 22
23.1493 14
23.1989 20
23.2486 16
23.2982 26
23.3478 18
23.3974 27
 23.447 34
23.4967 35
23.5463 29
23.5959 28
23.6455 23
23.6951 29
23.7448 23
23.7944 17
 23.844 29
23.8936 20
23.9432 16
23.9929 34
24.0425 30
24.0921 17
24.1417 31
24.1913 19
 24.241 28
24.2906 27
24.3402 22
24.3898 23
24.4394 25
24.4891 52
24.5387 52
24.5883 35
24.6379 24
24.6875 17
24.7372 16
24.7868 24
24.8364 22
 24.886 26
24.9357 18
24.9853 22
25.0349 22
25.0845 20
25.1341 16
25.1838 21
25.2334 21
 25.283 15
25.3326 16
25.3822 20
25.4319 31
25.4815 31
25.5311 24
25.5807 16
25.6303 20
  25.68 22
25.7296 18
25.7792 20
25.8288 26
25.8784 23
25.9281 30
25.9777 31
26.0273 11
26.0769 25
26.1265 32
26.1762 34
26.2258 23
26.2754 26
 26.325 48
26.3746 59
26.4243 83
26.4739 134
26.5235 116
26.5731 75
26.6227 56
26.6724 47
 26.722 37
26.7716 27
26.8212 28
26.8708 20
26.9205 35
26.9701 23
27.0197 27
27.0693 23
27.1189 15
27.1686 24
27.2182 35
27.2678 17
27.3174 27
 27.367 25
27.4167 19
27.4663 21
27.5159 24
27.5655 32
27.6151 27
27.6648 21
27.7144 24
 27.764 23
27.8136 21
27.8632 19
27.9129 25
27.9625 34
28.0121 24
28.0617 21
28.1113 29
 28.161 29
28.2106 31
28.2602 37
28.3098 59
28.3594 130
28.4091 385
28.4587 478
28.5083 122
28.5579 40
28.6075 32
28.6572 33
28.7068 25
28.7564 21
 28.806 22
28.8556 20
28.9053 22
28.9549 20
29.0045 20
29.0541 23
29.1037 21
29.1534 19
 29.203 15
29.2526 24
29.3022 17
29.3518 27
29.4015 19
29.4511 13
29.5007 24
29.5503 25
29.5999 17
29.6496 16
29.6992 17
29.7488 20
29.7984 14
 29.848 10
29.8977 15
29.9473 14
29.9969 14
30.0465 16
30.0961 17
30.1458 21
30.1954 20
 30.245 15
30.2946 14
30.3442 21
30.3939 20
30.4435 28
30.4931 18
30.5427 20
30.5923 23
 30.642 18
30.6916 19
30.7412 20
30.7908 28
30.8404 12
30.8901 20
30.9397 21
30.9893 13
31.0389 19
31.0885 17
31.1382 18
31.1878 20
31.2374 25
 31.287 19
31.3366 13
31.3863 17
31.4359 15
31.4855 22
31.5351 13
31.5847 16
31.6344 14
 31.684 21
31.7336 21
31.7832 46
31.8328 58
31.8825 95
31.9321 37
31.9817 24
32.0313 18
32.0809 15
32.1306 22
32.1802 18
32.2298 15
32.2794 21
 32.329 13
32.3787 24
32.4283 18
32.4779 12
32.5275 15
32.5771 18
32.6268 14
32.6764 18
 32.726 15
32.7756 11
32.8252 11
32.8749 20
32.9245 15
32.9741 19
33.0237 20
33.0733 22
 33.123  7
33.1726 15
33.2222 12
33.2718 21
33.3214 19
33.3711 13
33.4207 21
33.4703 34
33.5199 18
33.5695 31
33.6192 47
33.6688 67
33.7184 57
 33.768 45
33.8176 31
33.8673 24
33.9169 15
33.9665 19
34.0161 19
34.0657 15
34.1154 19
 34.165 17
34.2146 15
34.2642 12
34.3138 10
34.3635 17
34.4131 13
34.4627 22
34.5123  9
34.5619 15
34.6116 15
34.6612 23
34.7108 14
34.7604 11
  34.81 10
34.8597 15
34.9093 20
34.9589 22
35.0085 16
35.0582 14
35.1078 20
35.1574 10
 35.207 16
35.2566 17
35.3063 12
35.3559 10
35.4055 13
35.4551 12
35.5047 16
35.5544 18
 35.604 10
35.6536 16
35.7032 10
35.7528 12
35.8025 16
35.8521 16
35.9017 10
35.9513 14
36.0009 13
36.0506 10
36.1002  9
36.1498 10
36.1994 17
 36.249  6
36.2987 10
36.3483 13
36.3979 10
36.4475 13
36.4971 13
36.5468 11
36.5964 14
 36.646 16
36.6956 11
36.7452 12
36.7949 15
36.8445 16
36.8941 17
36.9437 10
36.9933 15
 37.043 15
37.0926  7
37.1422 15
37.1918 14
37.2414 17
37.2911 19
37.3407 13
37.3903 13
37.4399 26
37.4895 20
37.5392 30
37.5888 61
37.6384 97
 37.688 98
37.7376 80
37.7873 46
37.8369 40
37.8865 25
37.9361 18
37.9857 13
38.0354 17
 38.085 11
38.1346 11
38.1842 19
38.2338  6
38.2835 10
38.3331  8
38.3827 11
38.4323  8
38.4819  7
38.5316  7
38.5812 18
38.6308 10
38.6804  5
  38.73 11
38.7797 15
38.8293  8
38.8789 12
38.9285 18
38.9781  9
39.0278  9
39.0774 10
 39.127 10
39.1766 15
39.2262 15
39.2759  7
39.3255 11
39.3751 16
39.4247 17
39.4743  8
 39.524  9
39.5736 14
39.6232 10
39.6728  8
39.7224  9
39.7721  4
39.8217  9
39.8713  5
39.9209 13
39.9705  9
40.0202 11
40.0698  7
40.1194 13
 40.169 11
40.2186  8
40.2683 15
40.3179 18
40.3675  8
40.4171  6
40.4667 12
40.5164 13
 40.566 19
40.6156 17
40.6652 27
40.7148 17
40.7645 11
40.8141  9
40.8637  6
40.9133 14
40.9629 12
41.0126  7
41.0622 11
41.1118  6
41.1614  6
 41.211  9
41.2607 10
41.3103  9
41.3599  9
41.4095 10
41.4591 10
41.5088  8
41.5584 13
 41.608 12
41.6576 13
41.7072 10
41.7569 17
41.8065 10
41.8561  5
41.9057  7
41.9553  9
 42.005  9
42.0546 12
42.1042 13
42.1538 12
42.2034  6
42.2531  9
42.3027  4
42.3523  8
42.4019  8
42.4515 18
42.5012 10
42.5508  7
42.6004 13
  42.65  7
42.6996  6
42.7493 19
42.7989 14
42.8485 13
42.8981  9
42.9477 13
42.9974 12
 43.047 16
43.0966 14
43.1462 31
43.1958 37
43.2455 31
43.2951 22
43.3447  3
43.3943 16
43.4439 15
43.4936 12
43.5432 16
43.5928 10
43.6424 13
 43.692 15
43.7417  5
43.7913 15
43.8409  5
43.8905  5
43.9401  4
43.9898 14
44.0394 15
 44.089 14
44.1386 10
44.1882  8
44.2379  8
44.2875 12
44.3371  8
44.3867 12
44.4363 10
 44.486 12
44.5356  9
44.5852 14
44.6348  7
44.6844 17
44.7341 13
44.7837 10
44.8333  7
44.8829 10
44.9326 14
44.9822 11
45.0318  9
45.0814  9
 45.131  6
45.1807 11
45.2303 10
45.2799  6
45.3295  8
45.3791  8
45.4288  8
45.4784  6
 45.528  4
45.5776 13
45.6272  8
45.6769 12
45.7265 15
45.7761 10
45.8257 12
45.8753  7
 45.925  7
45.9746 10
46.0242 12
46.0738  7
46.1234 14
46.1731 12
46.2227 11
46.2723 10
46.3219  5
46.3715  6
46.4212 11
46.4708  9
46.5204  8
  46.57 17
46.6196  8
46.6693  7
46.7189  6
46.7685  8
46.8181 13
46.8677  8
46.9174  8
 46.967 15
47.0166  8
47.0662  9
47.1158 12
47.1655  6
47.2151 12
47.2647 12
47.3143  3
47.3639 10
47.4136 11
47.4632  9
47.5128 11
47.5624  9
 47.612  8
47.6617 10
47.7113 15
47.7609 12
47.8105 13
47.8601  5
47.9098 12
47.9594  9
 48.009  5
48.0586 10
48.1082  7
48.1579  8
48.2075 10
48.2571  6
48.3067 14
48.3563  7
 48.406 10
48.4556 17
48.5052  4
48.5548  6
48.6044  9
48.6541 10
48.7037  9
48.7533  7
48.8029  7
48.8525  6
48.9022 19
48.9518 10
49.0014  9
 49.051 11
49.1006 10
49.1503  8
49.1999  7
49.2495  7
49.2991 10
49.3487  6
49.3984 13
 49.448 11
49.4976 15
49.5472  9
49.5968  5
49.6465  9
49.6961  8
49.7457 15
49.7953 11
49.8449  8
49.8946  8
49.9442  8
49.9938  6
50.0434 10
 50.093  8
50.1427 12
50.1923 12
50.2419 14
50.2915 15
50.3411 10
50.3908 12
50.4404  7
  50.49  5
50.5396 11
50.5892 14
50.6389 10
50.6885 11
50.7381  8
50.7877 12
50.8373 11
 50.887  7
50.9366  6
50.9862 14
51.0358 14
51.0854 13
51.1351 11
51.1847 13
51.2343 13
51.2839 22
51.3335 43
51.3832 88
51.4328 143
51.4824 137
 51.532 113
51.5816 52
51.6313 39
51.6809 17
51.7305 22
51.7801 15
51.8297 14
51.8794 10
 51.929 13
51.9786 13
52.0282 10
52.0778 12
52.1275 14
52.1771 15
52.2267 13
52.2763 12
52.3259  8
52.3756 12
52.4252  9
52.4748  8
52.5244  4
 52.574 10
52.6237  8
52.6733  6
52.7229 12
52.7725 15
52.8221  9
52.8718  9
52.9214 11
 52.971  9
53.0206 17
53.0702 11
53.1199  7
53.1695  8
53.2191 10
53.2687 14
53.3183  8
 53.368  5
53.4176 15
53.4672  5
53.5168 13
53.5664 15
53.6161  7
53.6657  6
53.7153 18
53.7649  9
53.8145 10
53.8642  9
53.9138  9
53.9634  7
 54.013 10
54.0626 12
54.1123 13
54.1619  8
54.2115 15
54.2611 12
54.3107  9
54.3604  9
  54.41 13
54.4596 20
54.5092  9
54.5588 20
54.6085 15
54.6581 13
54.7077  9
54.7573  9
 54.807  4
54.8566 13
54.9062 13
54.9558  9
55.0054 18
55.0551 11
55.1047  9
55.1543 10
55.2039  6
55.2535 12
55.3032  7
55.3528  6
55.4024  4
 55.452  3
55.5016  6
55.5513  8
55.6009 11
55.6505  6
55.7001  8
55.7497 16
55.7994  7
 55.849  4
55.8986 10
55.9482  6
55.9978  8
56.0475 10
56.0971 14
56.1467 11
56.1963  8
56.2459 14
56.2956 10
56.3452 12
56.3948  9
56.4444 15
 56.494 10
56.5437  8
56.5933  9
56.6429 10
56.6925  8
56.7421  8
56.7918  7
56.8414  5
 56.891  9
56.9406 11
56.9902 17
57.0399  9
57.0895  6
57.1391 12
57.1887  7
57.2383  5
 57.288 10
57.3376 14
57.3872 18
57.4368  7
57.4864  6
57.5361  6
57.5857  4
57.6353  9
57.6849  5
57.7345 15
57.7842 13
57.8338  5
57.8834  9
 57.933 12
57.9826  3
58.0323  7
58.0819  5
58.1315  8
58.1811  9
58.2307  7
58.2804 12
  58.33 10
58.3796 13
58.4292  9
58.4788  9
58.5285  7
58.5781  5
58.6277 17
58.6773  5
58.7269  8
58.7766 14
58.8262 20
58.8758 17
58.9254 15
 58.975 10
59.0247 14
59.0743 10
59.1239  7
59.1735 11
59.2231  6
59.2728 14
59.3224 12
 59.372 14
59.4216  8
59.4712  9
59.5209 12
59.5705 10
59.6201  8
59.6697  7
59.7193 13
 59.769 16
59.8186 10
59.8682 14
59.9178  7
59.9674 18
60.0171 13
60.0667 13
60.1163  8
60.1659  8
60.2155  6
60.2652 15
60.3148  8
60.3644  8
 60.414  7
60.4636  9
60.5133  9
60.5629  9
60.6125  9
60.6621 14
60.7117 15
60.7614 25
 60.811 18
60.8606 15
60.9102 18
60.9598  7
61.0095 11
61.0591 11
61.1087 14
61.1583  4
61.2079 15
61.2576 14
61.3072 11
61.3568 23
61.4064 30
 61.456 51
61.5057 34
61.5553 20
61.6049 22
61.6545 22
61.7041 12
61.7538 13
61.8034 13
 61.853  9
61.9026  9
61.9522  5
62.0019 10
62.0515  6
62.1011  9
62.1507  4
62.2003 12
  62.25 13
62.2996 12
62.3492 11
62.3988  6
62.4484  9
62.4981 13
62.5477  8
62.5973  5
62.6469 10
62.6965  8
62.7462 10
62.7958 13
62.8454 11
 62.895 10
62.9446 14
62.9943  7
63.0439 15
63.0935 11
63.1431 10
63.1927  8
63.2424  9
 63.292 10
63.3416  6
63.3912 12
63.4408 12
63.4905  8
63.5401 13
63.5897  6
63.6393 10
63.6889 14
63.7386 12
63.7882 12
63.8378  5
63.8874 12
 63.937 17
63.9867 10
64.0363  8
64.0859 11
64.1355  8
64.1851 13
64.2348 16
64.2844 12
 64.334 11
64.3836  9
64.4332 13
64.4829 11
64.5325  4
64.5821 10
64.6317  6
64.6814  9
 64.731 10
64.7806 10
64.8302 10
64.8798 11
64.9295 11
64.9791 10
65.0287 11
65.0783 11
65.1279 16
65.1776 19
65.2272 15
65.2768 13
65.3264 39
 65.376 49
65.4257 53
65.4753 76
65.5249 57
65.5745 44
65.6241 32
65.6738 29
65.7234 24
 65.773 20
65.8226 22
65.8722 13
65.9219 14
65.9715 10
66.0211 12
66.0707 13
66.1203 11
  66.17  9
66.2196  8
66.2692  7
66.3188  8
66.3684  9
66.4181  8
66.4677  7
66.5173 14
66.5669 16
66.6165 12
66.6662 12
66.7158  8
66.7654 10
 66.815  4
66.8646  9
66.9143  8
66.9639 16
67.0135  7
67.0631  9
67.1127  5
67.1624  9
 67.212  9
67.2616  4
67.3112  9
67.3608  8
67.4105  9
67.4601 10
67.5097  3
67.5593 13
67.6089  9
67.6586 17
67.7082 11
67.7578  7
67.8074  7
 67.857  7
67.9067 10
67.9563  7
68.0059 11
68.0555  5
68.1051 10
68.1548  6
68.2044 15
 68.254  7
68.3036 15
68.3532  8
68.4029 12
68.4525  5
68.5021  8
68.5517 11
68.6013 12
 68.651  8
68.7006  9
68.7502 15
68.7998 10
68.8494  9
68.8991 12
68.9487 11
68.9983 12
69.0479  9
69.0975  6
69.1472 10
69.1968  7
69.2464  7
 69.296  9
69.3456  5
69.3953  7
69.4449  5
69.4945 10
69.5441 10
69.5937 11
69.6434  5
 69.693  5
69.7426 12
69.7922 10
69.8418  9
69.8915  9
69.9411  7
69.9907 14
70.0403  5
70.0899  6
70.1396  6
70.1892 14
70.2388  9
70.2884  7
 70.338  8
70.3877  6
70.4373  3
70.4869  9
70.5365 10
70.5861  9
70.6358 12
70.6854  6
 70.735 12
70.7846 10
70.8342  6
70.8839 15
70.9335  9
70.9831 10
71.0327  9
71.0823  7
 71.132 11
71.1816 13
71.2312 10
71.2808 12
71.3304 14
71.3801  4
71.4297  7
71.4793 12
71.5289 12
71.5785  7
71.6282  8
71.6778 10
71.7274 14
 71.777  7
71.8266  9
71.8763 11
71.9259 12
71.9755  4
72.0251  5
72.0747 16
72.1244  7
 72.174  8
72.2236  9
72.2732  6
72.3228  7
72.3725  7
72.4221  8
72.4717  7
72.5213  7
72.5709 11
72.6206  8
72.6702  7
72.7198 13
72.7694  8
 72.819 11
72.8687  6
72.9183 14
72.9679  7
73.0175  9
73.0671  6
73.1168  6
73.1664  4
 73.216 11
73.2656 10
73.3152  8
73.3649  6
73.4145  6
73.4641  5
73.5137  4
73.5633  9
 73.613  9
73.6626  7
73.7122  9
73.7618  8
73.8114  6
73.8611  6
73.9107 13
73.9603 12
74.0099 10
74.0595  7
74.1092 11
74.1588  5
74.2084  3
 74.258 11
74.3076 14
74.3573  6
74.4069  7
74.4565 11
74.5061  9
74.5558 10
74.6054  6
 74.655 11
74.7046  3
74.7542  5
74.8039  9
74.8535  8
74.9031  4
74.9527  8
75.0023 10
 75.052  6
75.1016 10
75.1512 11
75.2008 14
75.2504  3
75.3001  6
75.3497  6
75.3993 13
75.4489  7
75.4985  6
75.5482  9
75.5978  4
75.6474  9
 75.697 10
75.7466 10
75.7963  5
75.8459  8
75.8955  5
75.9451  8
75.9947  5
76.0444 15
 76.094 12
76.1436 10
76.1932  6
76.2428 14
76.2925  6
76.3421  7
76.3917  4
76.4413  7
76.4909  5
76.5406  9
76.5902  5
76.6398  3
76.6894  5
 76.739  6
76.7887  8
76.8383  5
76.8879  4
76.9375  8
76.9871 15
77.0368  8
77.0864  6
 77.136  7
77.1856  5
77.2352 10
77.2849  8
77.3345 11
77.3841  9
77.4337  2
77.4833  7
 77.533  9
77.5826  5
77.6322  8
77.6818  5
77.7314 14
77.7811  8
77.8307  8
77.8803  6
77.9299  8
77.9795 11
78.0292 14
78.0788 15
78.1284 15
 78.178 10
78.2276 20
78.2773 21
78.3269 17
78.3765 15
78.4261 12
78.4757 11
78.5254 14
 78.575  8
78.6246  8
78.6742  8
78.7238  9
78.7735  4
78.8231  7
78.8727  7
78.9223  4
78.9719  6
79.0216  8
79.0712 10
79.1208  7
79.1704  4
  79.22  4
79.2697  8
79.3193  5
79.3689  6
79.4185  7
79.4681  4
79.5178 10
79.5674  8
 79.617 12
79.6666 11
79.7162  9
79.7659 10
79.8155  6
79.8651  9
79.9147  3
79.9643  4
 80.014 10
