5.00000 2108.000
5.02000 2097.000
5.04000 2129.000
5.06000 2084.000
5.08000 2036.000
5.10000 2001.000
5.12000 2181.000
5.14000 2000.000
5.16000 2127.000
5.18000 2050.000
5.20000 2040.000
5.22000 2052.000
5.24000 1997.000
5.26000 1964.000
5.28000 1944.000
5.30000 1932.000
5.32000 2011.000
5.34000 1942.000
5.36000 1909.000
5.38000 1985.000
5.40000 1909.000
5.42000 1945.000
5.44000 1921.000
5.46000 1974.000
5.48000 1883.000
5.50000 1973.000
5.52000 1954.000
5.54000 1824.000
5.56000 1893.000
5.58000 1784.000
5.60000 1912.000
5.62000 1907.000
5.64000 1795.000
5.66000 1785.000
5.68000 1805.000
5.70000 1781.000
5.72000 1816.000
5.74000 1858.000
5.76000 1781.000
5.78000 1807.000
5.80000 1878.000
5.82000 1803.000
5.84000 1789.000
5.86000 1772.000
5.88000 1719.000
5.90000 1762.000
5.92000 1732.000
5.94000 1723.000
5.96000 1728.000
5.98000 1767.000
6.00000 1806.000
6.02000 1684.000
6.04000 1688.000
6.06000 1753.000
6.08000 1763.000
6.10000 1736.000
6.12000 1671.000
6.14000 1706.000
6.16000 1703.000
6.18000 1624.000
6.20000 1699.000
6.22000 1606.000
6.24000 1685.000
6.26000 1676.000
6.28000 1669.000
6.30000 1707.000
6.32000 1619.000
6.34000 1554.000
6.36000 1694.000
6.38000 1606.000
6.40000 1639.000
6.42000 1580.000
6.44000 1540.000
6.46000 1608.000
6.48000 1623.000
6.50000 1583.000
6.52000 1528.000
6.54000 1596.000
6.56000 1619.000
6.58000 1579.000
6.60000 1550.000
6.62000 1620.000
6.64000 1576.000
6.66000 1452.000
6.68000 1514.000
6.70000 1506.000
6.72000 1549.000
6.74000 1545.000
6.76000 1510.000
6.78000 1474.000
6.80000 1494.000
6.82000 1545.000
6.84000 1584.000
6.86000 1521.000
6.88000 1498.000
6.90000 1480.000
6.92000 1485.000
6.94000 1440.000
6.96000 1554.000
6.98000 1493.000
7.00000 1491.000
7.02000 1511.000
7.04000 1457.000
7.06000 1450.000
7.08000 1506.000
7.10000 1385.000
7.12000 1426.000
7.14000 1421.000
7.16000 1480.000
7.18000 1409.000
7.20000 1369.000
7.22000 1474.000
7.24000 1375.000
7.26000 1450.000
7.28000 1394.000
7.30000 1310.000
7.32000 1396.000
7.34000 1398.000
7.36000 1417.000
7.38000 1349.000
7.40000 1415.000
7.42000 1434.000
7.44000 1387.000
7.46000 1420.000
7.48000 1344.000
7.50000 1322.000
7.52000 1371.000
7.54000 1308.000
7.56000 1388.000
7.58000 1483.000
7.60000 1294.000
7.62000 1324.000
7.64000 1337.000
7.66000 1336.000
7.68000 1329.000
7.70000 1256.000
7.72000 1302.000
7.74000 1331.000
7.76000 1247.000
7.78000 1261.000
7.80000 1312.000
7.82000 1256.000
7.84000 1239.000
7.86000 1274.000
7.88000 1295.000
7.90000 1287.000
7.92000 1229.000
7.94000 1252.000
7.96000 1260.000
7.98000 1218.000
8.00000 1286.000
8.02000 1289.000
8.04000 1314.000
8.06000 1293.000
8.08000 1245.000
8.10000 1325.000
8.12000 1244.000
8.14000 1292.000
8.16000 1233.000
8.18000 1188.000
8.20000 1221.000
8.22000 1237.000
8.24000 1252.000
8.26000 1217.000
8.28000 1216.000
8.30000 1245.000
8.32000 1203.000
8.34000 1225.000
8.36000 1187.000
8.38000 1209.000
8.40000 1175.000
8.42000 1227.000
8.44000 1170.000
8.46000 1221.000
8.48000 1157.000
8.50000 1188.000
8.52000 1185.000
8.54000 1224.000
8.56000 1180.000
8.58000 1152.000
8.60000 1131.000
8.62000 1274.000
8.64000 1162.000
8.66000 1227.000
8.68000 1163.000
8.70000 1140.000
8.72000 1130.000
8.74000 1154.000
8.76000 1147.000
8.78000 1118.000
8.80000 1158.000
8.82000 1173.000
8.84000 1166.000
8.86000 1117.000
8.88000 1058.000
8.90000 1104.000
8.92000 1128.000
8.94000 1194.000
8.96000 1129.000
8.98000 1190.000
9.00000 1128.000
9.02000 1153.000
9.04000 1080.000
9.06000 1149.000
9.08000 1068.000
9.10000 1125.000
9.12000 1111.000
9.14000 1119.000
9.16000 1116.000
9.18000 1047.000
9.20000 1051.000
9.22000 1104.000
9.24000 1138.000
9.26000 1118.000
9.28000 1153.000
9.30000 1105.000
9.32000 1159.000
9.34000 1129.000
9.36000 1063.000
9.38000 1040.000
9.40000 1062.000
9.42000 1083.000
9.44000 1013.000
9.46000 1100.000
9.48000 1001.000
9.50000 1080.000
9.52000 1120.000
9.54000 1126.000
9.56000 1047.000
9.58000 1067.000
9.60000 1022.000
9.62000 1060.000
9.64000 1040.000
9.66000 1019.000
9.68000 1062.000
9.70000 1079.000
9.72000 1002.000
9.74000 1017.000
9.76000 1040.000
9.78000 1044.000
9.80000 986.000
9.82000 1065.000
9.84000 1014.000
9.86000 1037.000
9.88000 1037.000
9.90000 935.000
9.92000 972.000
9.94000 1071.000
9.96000 1026.000
9.98000 943.000
10.00000 1004.000
10.02000 987.000
10.04000 944.000
10.06000 1039.000
10.08000 1054.000
10.10000 984.000
10.12000 975.000
10.14000 990.000
10.16000 1026.000
10.18000 1034.000
10.20000 997.000
10.22000 1017.000
10.24000 956.000
10.26000 1001.000
10.28000 1007.000
10.30000 1012.000
10.32000 941.000
10.34000 945.000
10.36000 1002.000
10.38000 983.000
10.40000 972.000
10.42000 927.000
10.44000 928.000
10.46000 984.000
10.48000 993.000
10.50000 953.000
10.52000 935.000
10.54000 985.000
10.56000 933.000
10.58000 966.000
10.60000 969.000
10.62000 964.000
10.64000 988.000
10.66000 952.000
10.68000 933.000
10.70000 907.000
10.72000 936.000
10.74000 988.000
10.76000 929.000
10.78000 874.000
10.80000 924.000
10.82000 917.000
10.84000 943.000
10.86000 941.000
10.88000 969.000
10.90000 951.000
10.92000 954.000
10.94000 950.000
10.96000 930.000
10.98000 948.000
11.00000 930.000
11.02000 852.000
11.04000 874.000
11.06000 939.000
11.08000 904.000
11.10000 897.000
11.12000 959.000
11.14000 925.000
11.16000 887.000
11.18000 944.000
11.20000 959.000
11.22000 894.000
11.24000 907.000
11.26000 938.000
11.28000 883.000
11.30000 901.000
11.32000 874.000
11.34000 864.000
11.36000 947.000
11.38000 902.000
11.40000 947.000
11.42000 946.000
11.44000 893.000
11.46000 797.000
11.48000 927.000
11.50000 957.000
11.52000 867.000
11.54000 898.000
11.56000 850.000
11.58000 904.000
11.60000 887.000
11.62000 898.000
11.64000 926.000
11.66000 910.000
11.68000 913.000
11.70000 855.000
11.72000 912.000
11.74000 855.000
11.76000 926.000
11.78000 945.000
11.80000 919.000
11.82000 881.000
11.84000 871.000
11.86000 915.000
11.88000 889.000
11.90000 893.000
11.92000 901.000
11.94000 959.000
11.96000 929.000
11.98000 953.000
12.00000 1003.000
12.02000 967.000
12.04000 959.000
12.06000 961.000
12.08000 979.000
12.10000 982.000
12.12000 1028.000
12.14000 994.000
12.16000 987.000
12.18000 947.000
12.20000 1064.000
12.22000 1120.000
12.24000 1058.000
12.26000 1084.000
12.28000 1103.000
12.30000 1103.000
12.32000 1120.000
12.34000 1102.000
12.36000 1145.000
12.38000 1229.000
12.40000 1249.000
12.42000 1306.000
12.44000 1309.000
12.46000 1376.000
12.48000 1328.000
12.50000 1455.000
12.52000 1550.000
12.54000 1581.000
12.56000 1660.000
12.58000 1743.000
12.60000 1747.000
12.62000 1723.000
12.64000 1826.000
12.66000 1739.000
12.68000 1805.000
12.70000 1775.000
12.72000 1739.000
12.74000 1675.000
12.76000 1581.000
12.78000 1498.000
12.80000 1433.000
12.82000 1366.000
12.84000 1302.000
12.86000 1305.000
12.88000 1165.000
12.90000 1145.000
12.92000 1133.000
12.94000 1056.000
12.96000 1008.000
12.98000 984.000
13.00000 1012.000
13.02000 1013.000
13.04000 1014.000
13.06000 956.000
13.08000 974.000
13.10000 969.000
13.12000 1009.000
13.14000 1023.000
13.16000 1042.000
13.18000 1018.000
13.20000 1081.000
13.22000 1106.000
13.24000 1128.000
13.26000 1177.000
13.28000 1106.000
13.30000 1215.000
13.32000 1235.000
13.34000 1307.000
13.36000 1383.000
13.38000 1519.000
13.40000 1496.000
13.42000 1634.000
13.44000 1652.000
13.46000 1774.000
13.48000 1905.000
13.50000 2012.000
13.52000 2131.000
13.54000 2269.000
13.56000 2384.000
13.58000 2496.000
13.60000 2560.000
13.62000 2653.000
13.64000 2929.000
13.66000 3041.000
13.68000 3277.000
13.70000 3543.000
13.72000 3879.000
13.74000 4187.000
13.76000 4410.000
13.78000 4815.000
13.80000 5292.000
13.82000 5907.000
13.84000 6301.000
13.86000 6967.000
13.88000 7811.000
13.90000 8425.000
13.92000 9719.000
13.94000 10580.000
13.96000 11910.000
13.98000 13214.000
14.00000 14851.000
14.02000 16997.000
14.04000 19323.000
14.06000 21474.000
14.08000 24556.000
14.10000 27285.000
14.12000 29501.000
14.14000 30067.000
14.16000 28830.000
14.18000 25174.000
14.20000 20190.000
14.22000 15467.000
14.24000 11187.000
14.26000 8263.000
14.28000 6200.000
14.30000 4707.000
14.32000 3639.000
14.34000 2643.000
14.36000 2420.000
14.38000 2019.000
14.40000 1663.000
14.42000 1439.000
14.44000 1263.000
14.46000 1213.000
14.48000 1048.000
14.50000 1085.000
14.52000 1012.000
14.54000 878.000
14.56000 940.000
14.58000 862.000
14.60000 912.000
14.62000 872.000
14.64000 853.000
14.66000 815.000
14.68000 799.000
14.70000 733.000
14.72000 774.000
14.74000 803.000
14.76000 769.000
14.78000 732.000
14.80000 684.000
14.82000 740.000
14.84000 667.000
14.86000 761.000
14.88000 697.000
14.90000 717.000
14.92000 691.000
14.94000 700.000
14.96000 657.000
14.98000 694.000
15.00000 694.000
15.02000 708.000
15.04000 686.000
15.06000 706.000
15.08000 639.000
15.10000 662.000
15.12000 627.000
15.14000 660.000
15.16000 643.000
15.18000 675.000
15.20000 656.000
15.22000 618.000
15.24000 672.000
15.26000 677.000
15.28000 706.000
15.30000 609.000
15.32000 595.000
15.34000 670.000
15.36000 630.000
15.38000 636.000
15.40000 635.000
15.42000 636.000
15.44000 671.000
15.46000 676.000
15.48000 606.000
15.50000 570.000
15.52000 629.000
15.54000 663.000
15.56000 624.000
15.58000 638.000
15.60000 608.000
15.62000 589.000
15.64000 638.000
15.66000 617.000
15.68000 564.000
15.70000 672.000
15.72000 629.000
15.74000 575.000
15.76000 659.000
15.78000 637.000
15.80000 621.000
15.82000 612.000
15.84000 612.000
15.86000 579.000
15.88000 616.000
15.90000 560.000
15.92000 592.000
15.94000 587.000
15.96000 639.000
15.98000 624.000
16.00000 580.000
16.02000 588.000
16.04000 592.000
16.06000 596.000
16.08000 563.000
16.10000 585.000
16.12000 612.000
16.14000 588.000
16.16000 552.000
16.18000 575.000
16.20000 552.000
16.22000 576.000
16.24000 623.000
16.26000 555.000
16.28000 632.000
16.30000 551.000
16.32000 575.000
16.34000 575.000
16.36000 601.000
16.38000 541.000
16.40000 581.000
16.42000 604.000
16.44000 590.000
16.46000 644.000
16.48000 571.000
16.50000 586.000
16.52000 609.000
16.54000 582.000
16.56000 610.000
16.58000 534.000
16.60000 594.000
16.62000 593.000
16.64000 577.000
16.66000 582.000
16.68000 569.000
16.70000 554.000
16.72000 571.000
16.74000 545.000
16.76000 575.000
16.78000 588.000
16.80000 574.000
16.82000 584.000
16.84000 559.000
16.86000 551.000
16.88000 622.000
16.90000 560.000
16.92000 554.000
16.94000 540.000
16.96000 599.000
16.98000 530.000
17.00000 562.000
17.02000 580.000
17.04000 573.000
17.06000 541.000
17.08000 570.000
17.10000 544.000
17.12000 580.000
17.14000 561.000
17.16000 576.000
17.18000 504.000
17.20000 584.000
17.22000 542.000
17.24000 549.000
17.26000 568.000
17.28000 566.000
17.30000 535.000
17.32000 561.000
17.34000 532.000
17.36000 561.000
17.38000 501.000
17.40000 551.000
17.42000 537.000
17.44000 553.000
17.46000 588.000
17.48000 565.000
17.50000 540.000
17.52000 544.000
17.54000 573.000
17.56000 541.000
17.58000 588.000
17.60000 550.000
17.62000 560.000
17.64000 574.000
17.66000 531.000
17.68000 515.000
17.70000 545.000
17.72000 496.000
17.74000 526.000
17.76000 514.000
17.78000 572.000
17.80000 511.000
17.82000 546.000
17.84000 584.000
17.86000 524.000
17.88000 521.000
17.90000 534.000
17.92000 548.000
17.94000 536.000
17.96000 531.000
17.98000 505.000
18.00000 527.000
18.02000 567.000
18.04000 527.000
18.06000 557.000
18.08000 530.000
18.10000 545.000
18.12000 549.000
18.14000 550.000
18.16000 520.000
18.18000 487.000
18.20000 543.000
18.22000 550.000
18.24000 568.000
18.26000 515.000
18.28000 500.000
18.30000 579.000
18.32000 545.000
18.34000 561.000
18.36000 528.000
18.38000 556.000
18.40000 482.000
18.42000 540.000
18.44000 555.000
18.46000 534.000
18.48000 526.000
18.50000 537.000
18.52000 541.000
18.54000 518.000
18.56000 529.000
18.58000 532.000
18.60000 504.000
18.62000 506.000
18.64000 566.000
18.66000 551.000
18.68000 473.000
18.70000 487.000
18.72000 547.000
18.74000 480.000
18.76000 519.000
18.78000 508.000
18.80000 548.000
18.82000 526.000
18.84000 556.000
18.86000 493.000
18.88000 562.000
18.90000 519.000
18.92000 550.000
18.94000 495.000
18.96000 531.000
18.98000 557.000
19.00000 594.000
19.02000 547.000
19.04000 557.000
19.06000 534.000
19.08000 526.000
19.10000 579.000
19.12000 524.000
19.14000 554.000
19.16000 564.000
19.18000 578.000
19.20000 583.000
19.22000 567.000
19.24000 571.000
19.26000 519.000
19.28000 513.000
19.30000 559.000
19.32000 547.000
19.34000 574.000
19.36000 592.000
19.38000 586.000
19.40000 544.000
19.42000 613.000
19.44000 578.000
19.46000 574.000
19.48000 642.000
19.50000 608.000
19.52000 595.000
19.54000 660.000
19.56000 626.000
19.58000 650.000
19.60000 667.000
19.62000 747.000
19.64000 699.000
19.66000 753.000
19.68000 790.000
19.70000 869.000
19.72000 933.000
19.74000 902.000
19.76000 981.000
19.78000 1046.000
19.80000 1120.000
19.82000 1224.000
19.84000 1313.000
19.86000 1527.000
19.88000 1555.000
19.90000 1795.000
19.92000 2023.000
19.94000 2140.000
19.96000 2301.000
19.98000 2653.000
20.00000 2810.000
20.02000 3033.000
20.04000 3081.000
20.06000 3001.000
20.08000 2771.000
20.10000 2535.000
20.12000 2083.000
20.14000 1653.000
20.16000 1409.000
20.18000 1165.000
20.20000 1001.000
20.22000 863.000
20.24000 821.000
20.26000 694.000
20.28000 676.000
20.30000 663.000
20.32000 642.000
20.34000 599.000
20.36000 579.000
20.38000 530.000
20.40000 529.000
20.42000 565.000
20.44000 547.000
20.46000 562.000
20.48000 577.000
20.50000 571.000
20.52000 592.000
20.54000 539.000
20.56000 561.000
20.58000 571.000
20.60000 518.000
20.62000 503.000
20.64000 510.000
20.66000 570.000
20.68000 545.000
20.70000 549.000
20.72000 553.000
20.74000 545.000
20.76000 569.000
20.78000 541.000
20.80000 571.000
20.82000 539.000
20.84000 505.000
20.86000 533.000
20.88000 521.000
20.90000 465.000
20.92000 521.000
20.94000 534.000
20.96000 536.000
20.98000 584.000
21.00000 542.000
21.02000 573.000
21.04000 546.000
21.06000 499.000
21.08000 549.000
21.10000 539.000
21.12000 558.000
21.14000 521.000
21.16000 502.000
21.18000 566.000
21.20000 549.000
21.22000 532.000
21.24000 522.000
21.26000 554.000
21.28000 557.000
21.30000 531.000
21.32000 574.000
21.34000 536.000
21.36000 568.000
21.38000 557.000
21.40000 562.000
21.42000 558.000
21.44000 529.000
21.46000 535.000
21.48000 528.000
21.50000 531.000
21.52000 529.000
21.54000 511.000
21.56000 515.000
21.58000 523.000
21.60000 519.000
21.62000 506.000
21.64000 550.000
21.66000 545.000
21.68000 494.000
21.70000 493.000
21.72000 523.000
21.74000 580.000
21.76000 534.000
21.78000 554.000
21.80000 532.000
21.82000 556.000
21.84000 501.000
21.86000 532.000
21.88000 537.000
21.90000 515.000
21.92000 611.000
21.94000 525.000
21.96000 520.000
21.98000 566.000
22.00000 564.000
22.02000 554.000
22.04000 573.000
22.06000 570.000
22.08000 545.000
22.10000 548.000
22.12000 536.000
22.14000 565.000
22.16000 554.000
22.18000 546.000
22.20000 605.000
22.22000 510.000
22.24000 584.000
22.26000 566.000
22.28000 575.000
22.30000 570.000
22.32000 567.000
22.34000 581.000
22.36000 578.000
22.38000 546.000
22.40000 560.000
22.42000 577.000
22.44000 598.000
22.46000 588.000
22.48000 590.000
22.50000 590.000
22.52000 575.000
22.54000 583.000
22.56000 565.000
22.58000 645.000
22.60000 626.000
22.62000 597.000
22.64000 604.000
22.66000 586.000
22.68000 625.000
22.70000 635.000
22.72000 616.000
22.74000 634.000
22.76000 648.000
22.78000 644.000
22.80000 683.000
22.82000 668.000
22.84000 692.000
22.86000 695.000
22.88000 768.000
22.90000 787.000
22.92000 772.000
22.94000 752.000
22.96000 757.000
22.98000 739.000
23.00000 731.000
23.02000 675.000
23.04000 796.000
23.06000 684.000
23.08000 761.000
23.10000 750.000
23.12000 760.000
23.14000 830.000
23.16000 802.000
23.18000 863.000
23.20000 893.000
23.22000 979.000
23.24000 983.000
23.26000 1053.000
23.28000 1183.000
23.30000 1280.000
23.32000 1348.000
23.34000 1422.000
23.36000 1673.000
23.38000 1873.000
23.40000 2018.000
23.42000 2256.000
23.44000 2534.000
23.46000 2848.000
23.48000 3153.000
23.50000 3302.000
23.52000 3515.000
23.54000 3311.000
23.56000 3025.000
23.58000 2631.000
23.60000 2415.000
23.62000 2027.000
23.64000 1672.000
23.66000 1310.000
23.68000 1175.000
23.70000 1034.000
23.72000 881.000
23.74000 795.000
23.76000 778.000
23.78000 713.000
23.80000 695.000
23.82000 692.000
23.84000 649.000
23.86000 632.000
23.88000 622.000
23.90000 609.000
23.92000 581.000
23.94000 640.000
23.96000 628.000
23.98000 629.000
24.00000 662.000
24.02000 687.000
24.04000 638.000
24.06000 641.000
24.08000 660.000
24.10000 669.000
24.12000 751.000
24.14000 624.000
24.16000 710.000
24.18000 728.000
24.20000 746.000
24.22000 809.000
24.24000 902.000
24.26000 888.000
24.28000 947.000
24.30000 1040.000
24.32000 1191.000
24.34000 1214.000
24.36000 1288.000
24.38000 1429.000
24.40000 1582.000
24.42000 1812.000
24.44000 2006.000
24.46000 2258.000
24.48000 2452.000
24.50000 2688.000
24.52000 2712.000
24.54000 2751.000
24.56000 2668.000
24.58000 2331.000
24.60000 2044.000
24.62000 1804.000
24.64000 1497.000
24.66000 1237.000
24.68000 1091.000
24.70000 954.000
24.72000 873.000
24.74000 697.000
24.76000 779.000
24.78000 677.000
24.80000 659.000
24.82000 604.000
24.84000 609.000
24.86000 600.000
24.88000 561.000
24.90000 586.000
24.92000 577.000
24.94000 551.000
24.96000 561.000
24.98000 551.000
25.00000 562.000
25.02000 577.000
25.04000 570.000
25.06000 572.000
25.08000 534.000
25.10000 579.000
25.12000 544.000
25.14000 523.000
25.16000 569.000
25.18000 549.000
25.20000 543.000
25.22000 556.000
25.24000 586.000
25.26000 553.000
25.28000 557.000
25.30000 578.000
25.32000 549.000
25.34000 567.000
25.36000 566.000
25.38000 548.000
25.40000 563.000
25.42000 568.000
25.44000 549.000
25.46000 578.000
25.48000 525.000
25.50000 576.000
25.52000 556.000
25.54000 541.000
25.56000 590.000
25.58000 556.000
25.60000 595.000
25.62000 554.000
25.64000 582.000
25.66000 556.000
25.68000 616.000
25.70000 535.000
25.72000 611.000
25.74000 568.000
25.76000 543.000
25.78000 543.000
25.80000 519.000
25.82000 521.000
25.84000 568.000
25.86000 518.000
25.88000 554.000
25.90000 496.000
25.92000 518.000
25.94000 536.000
25.96000 534.000
25.98000 498.000
26.00000 519.000
26.02000 513.000
26.04000 542.000
26.06000 539.000
26.08000 533.000
26.10000 547.000
26.12000 487.000
26.14000 507.000
26.16000 508.000
26.18000 548.000
26.20000 513.000
26.22000 488.000
26.24000 492.000
26.26000 518.000
26.28000 504.000
26.30000 515.000
26.32000 500.000
26.34000 517.000
26.36000 523.000
26.38000 493.000
26.40000 484.000
26.42000 519.000
26.44000 507.000
26.46000 490.000
26.48000 434.000
26.50000 509.000
26.52000 498.000
26.54000 489.000
26.56000 493.000
26.58000 461.000
26.60000 516.000
26.62000 506.000
26.64000 496.000
26.66000 478.000
26.68000 466.000
26.70000 524.000
26.72000 488.000
26.74000 490.000
26.76000 506.000
26.78000 487.000
26.80000 510.000
26.82000 496.000
26.84000 538.000
26.86000 521.000
26.88000 537.000
26.90000 539.000
26.92000 501.000
26.94000 514.000
26.96000 527.000
26.98000 528.000
27.00000 512.000
27.02000 504.000
27.04000 504.000
27.06000 542.000
27.08000 555.000
27.10000 513.000
27.12000 557.000
27.14000 528.000
27.16000 562.000
27.18000 587.000
27.20000 588.000
27.22000 605.000
27.24000 634.000
27.26000 577.000
27.28000 591.000
27.30000 525.000
27.32000 536.000
27.34000 464.000
27.36000 547.000
27.38000 544.000
27.40000 537.000
27.42000 565.000
27.44000 497.000
27.46000 521.000
27.48000 532.000
27.50000 560.000
27.52000 587.000
27.54000 518.000
27.56000 534.000
27.58000 586.000
27.60000 534.000
27.62000 557.000
27.64000 557.000
27.66000 554.000
27.68000 596.000
27.70000 556.000
27.72000 548.000
27.74000 636.000
27.76000 643.000
27.78000 603.000
27.80000 649.000
27.82000 658.000
27.84000 684.000
27.86000 678.000
27.88000 697.000
27.90000 680.000
27.92000 718.000
27.94000 716.000
27.96000 786.000
27.98000 882.000
28.00000 890.000
28.02000 997.000
28.04000 1006.000
28.06000 1095.000
28.08000 1304.000
28.10000 1324.000
28.12000 1525.000
28.14000 1781.000
28.16000 2030.000
28.18000 2153.000
28.20000 2615.000
28.22000 2784.000
28.24000 3352.000
28.26000 3814.000
28.28000 4465.000
28.30000 5151.000
28.32000 6031.000
28.34000 6913.000
28.36000 8116.000
28.38000 9477.000
28.40000 10885.000
28.42000 12872.000
28.44000 13763.000
28.46000 14876.000
28.48000 14993.000
28.50000 13868.000
28.52000 12443.000
28.54000 10604.000
28.56000 8934.000
28.58000 7192.000
28.60000 5518.000
28.62000 4224.000
28.64000 3144.000
28.66000 2538.000
28.68000 1897.000
28.70000 1681.000
28.72000 1347.000
28.74000 1139.000
28.76000 1009.000
28.78000 838.000
28.80000 805.000
28.82000 686.000
28.84000 727.000
28.86000 640.000
28.88000 601.000
28.90000 613.000
28.92000 582.000
28.94000 557.000
28.96000 555.000
28.98000 508.000
29.00000 552.000
29.02000 541.000
29.04000 483.000
29.06000 526.000
29.08000 467.000
29.10000 473.000
29.12000 454.000
29.14000 422.000
29.16000 451.000
29.18000 488.000
29.20000 429.000
29.22000 457.000
29.24000 448.000
29.26000 458.000
29.28000 458.000
29.30000 411.000
29.32000 438.000
29.34000 430.000
29.36000 422.000
29.38000 403.000
29.40000 433.000
29.42000 449.000
29.44000 464.000
29.46000 426.000
29.48000 418.000
29.50000 415.000
29.52000 394.000
29.54000 379.000
29.56000 386.000
29.58000 409.000
29.60000 382.000
29.62000 405.000
29.64000 396.000
29.66000 394.000
29.68000 415.000
29.70000 381.000
29.72000 360.000
29.74000 376.000
29.76000 406.000
29.78000 378.000
29.80000 410.000
29.82000 398.000
29.84000 389.000
29.86000 395.000
29.88000 382.000
29.90000 368.000
29.92000 397.000
29.94000 411.000
29.96000 415.000
29.98000 419.000
30.00000 387.000
30.02000 362.000
30.04000 392.000
30.06000 407.000
30.08000 402.000
30.10000 373.000
30.12000 357.000
30.14000 421.000
30.16000 382.000
30.18000 400.000
30.20000 370.000
30.22000 340.000
30.24000 373.000
30.26000 360.000
30.28000 388.000
30.30000 381.000
30.32000 393.000
30.34000 409.000
30.36000 439.000
30.38000 399.000
30.40000 465.000
30.42000 440.000
30.44000 502.000
30.46000 447.000
30.48000 501.000
30.50000 479.000
30.52000 474.000
30.54000 466.000
30.56000 471.000
30.58000 470.000
30.60000 501.000
30.62000 424.000
30.64000 419.000
30.66000 482.000
30.68000 475.000
30.70000 456.000
30.72000 499.000
30.74000 488.000
30.76000 490.000
30.78000 493.000
30.80000 480.000
30.82000 508.000
30.84000 558.000
30.86000 573.000
30.88000 553.000
30.90000 638.000
30.92000 702.000
30.94000 628.000
30.96000 639.000
30.98000 646.000
31.00000 600.000
31.02000 602.000
31.04000 614.000
31.06000 609.000
31.08000 575.000
31.10000 532.000
31.12000 530.000
31.14000 487.000
31.16000 516.000
31.18000 473.000
31.20000 507.000
31.22000 484.000
31.24000 456.000
31.26000 485.000
31.28000 484.000
31.30000 462.000
31.32000 513.000
31.34000 537.000
31.36000 489.000
31.38000 562.000
31.40000 558.000
31.42000 570.000
31.44000 581.000
31.46000 655.000
31.48000 711.000
31.50000 665.000
31.52000 788.000
31.54000 916.000
31.56000 1040.000
31.58000 1122.000
31.60000 1286.000
31.62000 1520.000
31.64000 1680.000
31.66000 2022.000
31.68000 2398.000
31.70000 2725.000
31.72000 3219.000
31.74000 3779.000
31.76000 4560.000
31.78000 5422.000
31.80000 6280.000
31.82000 7301.000
31.84000 8378.000
31.86000 9559.000
31.88000 10318.000
31.90000 10826.000
31.92000 10881.000
31.94000 10300.000
31.96000 9461.000
31.98000 8075.000
32.00000 6852.000
32.02000 5698.000
32.04000 4685.000
32.06000 3613.000
32.08000 2851.000
32.10000 2246.000
32.12000 1744.000
32.14000 1349.000
32.16000 1149.000
32.18000 905.000
32.20000 803.000
32.22000 749.000
32.24000 682.000
32.26000 628.000
32.28000 564.000
32.30000 513.000
32.32000 479.000
32.34000 473.000
32.36000 441.000
32.38000 451.000
32.40000 433.000
32.42000 437.000
32.44000 388.000
32.46000 431.000
32.48000 392.000
32.50000 375.000
32.52000 367.000
32.54000 426.000
32.56000 389.000
32.58000 416.000
32.60000 387.000
32.62000 364.000
32.64000 399.000
32.66000 352.000
32.68000 367.000
32.70000 328.000
32.72000 370.000
32.74000 335.000
32.76000 354.000
32.78000 355.000
32.80000 343.000
32.82000 362.000
32.84000 337.000
32.86000 355.000
32.88000 345.000
32.90000 314.000
32.92000 344.000
32.94000 348.000
32.96000 322.000
32.98000 330.000
33.00000 307.000
33.02000 307.000
33.04000 342.000
33.06000 339.000
33.08000 326.000
33.10000 338.000
33.12000 354.000
33.14000 331.000
33.16000 339.000
33.18000 318.000
33.20000 319.000
33.22000 312.000
33.24000 321.000
33.26000 324.000
33.28000 319.000
33.30000 330.000
33.32000 324.000
33.34000 317.000
33.36000 308.000
33.38000 321.000
33.40000 315.000
33.42000 321.000
33.44000 326.000
33.46000 319.000
33.48000 331.000
33.50000 324.000
33.52000 351.000
33.54000 318.000
33.56000 289.000
33.58000 302.000
33.60000 309.000
33.62000 315.000
33.64000 301.000
33.66000 276.000
33.68000 328.000
33.70000 288.000
33.72000 321.000
33.74000 311.000
33.76000 300.000
33.78000 284.000
33.80000 309.000
33.82000 301.000
33.84000 300.000
33.86000 283.000
33.88000 314.000
33.90000 311.000
33.92000 273.000
33.94000 317.000
33.96000 331.000
33.98000 297.000
34.00000 297.000
34.02000 285.000
34.04000 282.000
34.06000 301.000
34.08000 294.000
34.10000 299.000
34.12000 283.000
34.14000 305.000
34.16000 307.000
34.18000 304.000
34.20000 302.000
34.22000 303.000
34.24000 310.000
34.26000 308.000
34.28000 292.000
34.30000 289.000
34.32000 284.000
34.34000 289.000
34.36000 303.000
34.38000 273.000
34.40000 273.000
34.42000 303.000
34.44000 321.000
34.46000 343.000
34.48000 285.000
34.50000 272.000
34.52000 306.000
34.54000 323.000
34.56000 311.000
34.58000 348.000
34.60000 332.000
34.62000 306.000
34.64000 365.000
34.66000 365.000
34.68000 360.000
34.70000 402.000
34.72000 443.000
34.74000 511.000
34.76000 495.000
34.78000 580.000
34.80000 656.000
34.82000 698.000
34.84000 741.000
34.86000 855.000
34.88000 999.000
34.90000 1045.000
34.92000 1232.000
34.94000 1394.000
34.96000 1612.000
34.98000 1575.000
35.00000 1680.000
35.02000 1612.000
35.04000 1606.000
35.06000 1467.000
35.08000 1334.000
35.10000 1145.000
35.12000 1000.000
35.14000 841.000
35.16000 744.000
35.18000 628.000
35.20000 575.000
35.22000 500.000
35.24000 441.000
35.26000 420.000
35.28000 338.000
35.30000 359.000
35.32000 302.000
35.34000 326.000
35.36000 299.000
35.38000 300.000
35.40000 307.000
35.42000 281.000
35.44000 286.000
35.46000 277.000
35.48000 281.000
35.50000 286.000
35.52000 308.000
35.54000 252.000
35.56000 280.000
35.58000 280.000
35.60000 225.000
35.62000 283.000
35.64000 279.000
35.66000 282.000
35.68000 287.000
35.70000 265.000
35.72000 255.000
35.74000 272.000
35.76000 289.000
35.78000 251.000
35.80000 274.000
35.82000 257.000
35.84000 271.000
35.86000 301.000
35.88000 250.000
35.90000 271.000
35.92000 284.000
35.94000 274.000
35.96000 257.000
35.98000 284.000
36.00000 220.000
36.02000 259.000
36.04000 266.000
36.06000 268.000
36.08000 277.000
36.10000 283.000
36.12000 276.000
36.14000 268.000
36.16000 257.000
36.18000 238.000
36.20000 280.000
36.22000 253.000
36.24000 259.000
36.26000 269.000
36.28000 275.000
36.30000 249.000
36.32000 246.000
36.34000 270.000
36.36000 274.000
36.38000 268.000
36.40000 258.000
36.42000 271.000
36.44000 275.000
36.46000 248.000
36.48000 271.000
36.50000 248.000
36.52000 275.000
36.54000 290.000
36.56000 271.000
36.58000 278.000
36.60000 254.000
36.62000 274.000
36.64000 261.000
36.66000 279.000
36.68000 281.000
36.70000 246.000
36.72000 253.000
36.74000 225.000
36.76000 298.000
36.78000 257.000
36.80000 259.000
36.82000 276.000
36.84000 288.000
36.86000 245.000
36.88000 281.000
36.90000 239.000
36.92000 243.000
36.94000 260.000
36.96000 241.000
36.98000 284.000
37.00000 261.000
37.02000 318.000
37.04000 296.000
37.06000 317.000
37.08000 323.000
37.10000 329.000
37.12000 390.000
37.14000 435.000
37.16000 405.000
37.18000 476.000
37.20000 474.000
37.22000 472.000
37.24000 488.000
37.26000 474.000
37.28000 464.000
37.30000 415.000
37.32000 407.000
37.34000 405.000
37.36000 427.000
37.38000 331.000
37.40000 319.000
37.42000 332.000
37.44000 296.000
37.46000 270.000
37.48000 284.000
37.50000 270.000
37.52000 287.000
37.54000 292.000
37.56000 258.000
37.58000 247.000
37.60000 255.000
37.62000 275.000
37.64000 272.000
37.66000 297.000
37.68000 258.000
37.70000 245.000
37.72000 255.000
37.74000 247.000
37.76000 265.000
37.78000 273.000
37.80000 249.000
37.82000 216.000
37.84000 237.000
37.86000 259.000
37.88000 249.000
37.90000 261.000
37.92000 268.000
37.94000 234.000
37.96000 257.000
37.98000 264.000
38.00000 288.000
38.02000 263.000
38.04000 248.000
38.06000 272.000
38.08000 220.000
38.10000 257.000
38.12000 253.000
38.14000 270.000
38.16000 283.000
38.18000 259.000
38.20000 258.000
38.22000 288.000
38.24000 290.000
38.26000 246.000
38.28000 277.000
38.30000 242.000
38.32000 265.000
38.34000 287.000
38.36000 301.000
38.38000 274.000
38.40000 300.000
38.42000 300.000
38.44000 261.000
38.46000 256.000
38.48000 280.000
38.50000 280.000
38.52000 281.000
38.54000 295.000
38.56000 312.000
38.58000 337.000
38.60000 320.000
38.62000 301.000
38.64000 314.000
38.66000 283.000
38.68000 300.000
38.70000 302.000
38.72000 317.000
38.74000 309.000
38.76000 323.000
38.78000 293.000
38.80000 315.000
38.82000 309.000
38.84000 345.000
38.86000 316.000
38.88000 275.000
38.90000 282.000
38.92000 316.000
38.94000 290.000
38.96000 285.000
38.98000 305.000
39.00000 291.000
39.02000 305.000
39.04000 294.000
39.06000 294.000
39.08000 258.000
39.10000 274.000
39.12000 307.000
39.14000 284.000
39.16000 268.000
39.18000 264.000
39.20000 269.000
39.22000 292.000
39.24000 285.000
39.26000 286.000
39.28000 304.000
39.30000 314.000
39.32000 302.000
39.34000 305.000
39.36000 323.000
39.38000 335.000
39.40000 350.000
39.42000 382.000
39.44000 367.000
39.46000 422.000
39.48000 395.000
39.50000 431.000
39.52000 390.000
39.54000 446.000
39.56000 428.000
39.58000 422.000
39.60000 409.000
39.62000 417.000
39.64000 363.000
39.66000 358.000
39.68000 388.000
39.70000 360.000
39.72000 310.000
39.74000 307.000
39.76000 280.000
39.78000 294.000
39.80000 279.000
39.82000 319.000
39.84000 321.000
39.86000 312.000
39.88000 284.000
39.90000 299.000
39.92000 310.000
39.94000 311.000
39.96000 314.000
39.98000 296.000
40.00000 310.000
40.02000 300.000
40.04000 284.000
40.06000 316.000
40.08000 344.000
40.10000 334.000
40.12000 347.000
40.14000 361.000
40.16000 357.000
40.18000 342.000
40.20000 418.000
40.22000 410.000
40.24000 457.000
40.26000 509.000
40.28000 572.000
40.30000 600.000
40.32000 650.000
40.34000 713.000
40.36000 868.000
40.38000 991.000
40.40000 1151.000
40.42000 1317.000
40.44000 1424.000
40.46000 1679.000
40.48000 1843.000
40.50000 2037.000
40.52000 2078.000
40.54000 2152.000
40.56000 2206.000
40.58000 2441.000
40.60000 2607.000
40.62000 2793.000
40.64000 2992.000
40.66000 3111.000
40.68000 3194.000
40.70000 3198.000
40.72000 3107.000
40.74000 2884.000
40.76000 2671.000
40.78000 2462.000
40.80000 2215.000
40.82000 1905.000
40.84000 1608.000
40.86000 1358.000
40.88000 1080.000
40.90000 940.000
40.92000 792.000
40.94000 667.000
40.96000 576.000
40.98000 513.000
41.00000 507.000
41.02000 451.000
41.04000 457.000
41.06000 409.000
41.08000 428.000
41.10000 395.000
41.12000 383.000
41.14000 406.000
41.16000 396.000
41.18000 367.000
41.20000 359.000
41.22000 375.000
41.24000 381.000
41.26000 427.000
41.28000 406.000
41.30000 359.000
41.32000 388.000
41.34000 398.000
41.36000 362.000
41.38000 370.000
41.40000 366.000
41.42000 369.000
41.44000 333.000
41.46000 367.000
41.48000 382.000
41.50000 337.000
41.52000 349.000
41.54000 378.000
41.56000 365.000
41.58000 343.000
41.60000 310.000
41.62000 377.000
41.64000 366.000
41.66000 326.000
41.68000 334.000
41.70000 339.000
41.72000 341.000
41.74000 319.000
41.76000 333.000
41.78000 315.000
41.80000 329.000
41.82000 329.000
41.84000 324.000
41.86000 289.000
41.88000 329.000
41.90000 313.000
41.92000 318.000
41.94000 321.000
41.96000 296.000
41.98000 274.000
42.00000 276.000
42.02000 308.000
42.04000 277.000
42.06000 296.000
42.08000 296.000
42.10000 288.000
42.12000 316.000
42.14000 311.000
42.16000 318.000
42.18000 287.000
42.20000 314.000
42.22000 334.000
42.24000 309.000
42.26000 352.000
42.28000 315.000
42.30000 379.000
42.32000 360.000
42.34000 387.000
42.36000 375.000
42.38000 435.000
42.40000 451.000
42.42000 482.000
42.44000 532.000
42.46000 577.000
42.48000 606.000
42.50000 762.000
42.52000 762.000
42.54000 883.000
42.56000 1019.000
42.58000 1127.000
42.60000 1209.000
42.62000 1271.000
42.64000 1303.000
42.66000 1349.000
42.68000 1231.000
42.70000 1142.000
42.72000 1125.000
42.74000 1060.000
42.76000 984.000
42.78000 881.000
42.80000 787.000
42.82000 681.000
42.84000 660.000
42.86000 683.000
42.88000 708.000
42.90000 732.000
42.92000 767.000
42.94000 815.000
42.96000 858.000
42.98000 1091.000
43.00000 1261.000
43.02000 1434.000
43.04000 1677.000
43.06000 1842.000
43.08000 2053.000
43.10000 2082.000
43.12000 2240.000
43.14000 2196.000
43.16000 2249.000
43.18000 2351.000
43.20000 2306.000
43.22000 2335.000
43.24000 2194.000
43.26000 2047.000
43.28000 1838.000
43.30000 1590.000
43.32000 1561.000
43.34000 1400.000
43.36000 1248.000
43.38000 1080.000
43.40000 908.000
43.42000 755.000
43.44000 683.000
43.46000 565.000
43.48000 474.000
43.50000 459.000
43.52000 433.000
43.54000 382.000
43.56000 345.000
43.58000 350.000
43.60000 332.000
43.62000 318.000
43.64000 322.000
43.66000 324.000
43.68000 283.000
43.70000 293.000
43.72000 286.000
43.74000 296.000
43.76000 269.000
43.78000 296.000
43.80000 242.000
43.82000 293.000
43.84000 276.000
43.86000 303.000
43.88000 254.000
43.90000 266.000
43.92000 257.000
43.94000 245.000
43.96000 256.000
43.98000 281.000
44.00000 267.000
44.02000 270.000
44.04000 285.000
44.06000 255.000
44.08000 279.000
44.10000 286.000
44.12000 274.000
44.14000 253.000
44.16000 250.000
44.18000 262.000
44.20000 268.000
44.22000 232.000
44.24000 242.000
44.26000 255.000
44.28000 239.000
44.30000 248.000
44.32000 253.000
44.34000 252.000
44.36000 243.000
44.38000 246.000
44.40000 244.000
44.42000 239.000
44.44000 271.000
44.46000 255.000
44.48000 244.000
44.50000 247.000
44.52000 228.000
44.54000 234.000
44.56000 240.000
44.58000 235.000
44.60000 216.000
44.62000 254.000
44.64000 253.000
44.66000 234.000
44.68000 252.000
44.70000 244.000
44.72000 238.000
44.74000 227.000
44.76000 229.000
44.78000 242.000
44.80000 232.000
44.82000 223.000
44.84000 234.000
44.86000 243.000
44.88000 247.000
44.90000 240.000
44.92000 221.000
44.94000 245.000
44.96000 202.000
44.98000 236.000
45.00000 256.000
45.02000 263.000
45.04000 222.000
45.06000 250.000
45.08000 245.000
45.10000 248.000
45.12000 254.000
45.14000 240.000
45.16000 234.000
45.18000 247.000
45.20000 230.000
45.22000 254.000
45.24000 224.000
45.26000 240.000
45.28000 238.000
45.30000 227.000
45.32000 240.000
45.34000 212.000
45.36000 220.000
45.38000 245.000
45.40000 248.000
45.42000 229.000
45.44000 245.000
45.46000 229.000
45.48000 275.000
45.50000 276.000
45.52000 265.000
45.54000 280.000
45.56000 275.000
45.58000 305.000
45.60000 334.000
45.62000 370.000
45.64000 389.000
45.66000 407.000
45.68000 466.000
45.70000 521.000
45.72000 512.000
45.74000 536.000
45.76000 560.000
45.78000 534.000
45.80000 488.000
45.82000 479.000
45.84000 454.000
45.86000 422.000
45.88000 428.000
45.90000 372.000
45.92000 317.000
45.94000 290.000
45.96000 299.000
45.98000 300.000
46.00000 273.000
46.02000 261.000
46.04000 221.000
46.06000 237.000
46.08000 244.000
46.10000 244.000
46.12000 274.000
46.14000 223.000
46.16000 261.000
46.18000 264.000
46.20000 244.000
46.22000 218.000
46.24000 246.000
46.26000 228.000
46.28000 234.000
46.30000 259.000
46.32000 239.000
46.34000 211.000
46.36000 233.000
46.38000 245.000
46.40000 216.000
46.42000 205.000
46.44000 214.000
46.46000 214.000
46.48000 223.000
46.50000 207.000
46.52000 229.000
46.54000 230.000
46.56000 240.000
46.58000 226.000
46.60000 225.000
46.62000 240.000
46.64000 197.000
46.66000 229.000
46.68000 229.000
46.70000 198.000
46.72000 230.000
46.74000 194.000
46.76000 228.000
46.78000 238.000
46.80000 221.000
46.82000 191.000
46.84000 234.000
46.86000 202.000
46.88000 219.000
46.90000 242.000
46.92000 198.000
46.94000 189.000
46.96000 212.000
46.98000 224.000
47.00000 223.000
47.02000 238.000
47.04000 220.000
47.06000 194.000
47.08000 211.000
47.10000 259.000
47.12000 221.000
47.14000 262.000
47.16000 227.000
47.18000 259.000
47.20000 231.000
47.22000 279.000
47.24000 268.000
47.26000 267.000
47.28000 323.000
47.30000 362.000
47.32000 349.000
47.34000 376.000
47.36000 477.000
47.38000 466.000
47.40000 465.000
47.42000 525.000
47.44000 546.000
47.46000 471.000
47.48000 488.000
47.50000 466.000
47.52000 435.000
47.54000 427.000
47.56000 432.000
47.58000 405.000
47.60000 370.000
47.62000 348.000
47.64000 356.000
47.66000 293.000
47.68000 280.000
47.70000 261.000
47.72000 240.000
47.74000 263.000
47.76000 259.000
47.78000 203.000
47.80000 226.000
47.82000 224.000
47.84000 222.000
47.86000 184.000
47.88000 234.000
47.90000 207.000
47.92000 242.000
47.94000 237.000
47.96000 210.000
47.98000 259.000
48.00000 211.000
48.02000 237.000
48.04000 219.000
48.06000 217.000
48.08000 234.000
48.10000 224.000
48.12000 222.000
48.14000 200.000
48.16000 219.000
48.18000 201.000
48.20000 217.000
48.22000 208.000
48.24000 193.000
48.26000 175.000
48.28000 201.000
48.30000 214.000
48.32000 211.000
48.34000 187.000
48.36000 214.000
48.38000 201.000
48.40000 197.000
48.42000 202.000
48.44000 215.000
48.46000 194.000
48.48000 236.000
48.50000 203.000
48.52000 206.000
48.54000 196.000
48.56000 214.000
48.58000 197.000
48.60000 193.000
48.62000 186.000
48.64000 179.000
48.66000 204.000
48.68000 218.000
48.70000 197.000
48.72000 175.000
48.74000 209.000
48.76000 180.000
48.78000 204.000
48.80000 200.000
48.82000 221.000
48.84000 195.000
48.86000 195.000
48.88000 190.000
48.90000 211.000
48.92000 211.000
48.94000 213.000
48.96000 210.000
48.98000 209.000
49.00000 224.000
49.02000 199.000
49.04000 238.000
49.06000 219.000
49.08000 215.000
49.10000 178.000
49.12000 208.000
49.14000 185.000
49.16000 217.000
49.18000 224.000
49.20000 216.000
49.22000 218.000
49.24000 220.000
49.26000 248.000
49.28000 245.000
49.30000 235.000
49.32000 264.000
49.34000 212.000
49.36000 213.000
49.38000 214.000
49.40000 248.000
49.42000 214.000
49.44000 231.000
49.46000 199.000
49.48000 211.000
49.50000 198.000
49.52000 241.000
49.54000 200.000
49.56000 190.000
49.58000 200.000
49.60000 192.000
49.62000 234.000
49.64000 218.000
49.66000 235.000
49.68000 226.000
49.70000 232.000
49.72000 194.000
49.74000 233.000
49.76000 210.000
49.78000 224.000
49.80000 219.000
49.82000 229.000
49.84000 205.000
49.86000 214.000
49.88000 233.000
49.90000 230.000
49.92000 192.000
49.94000 252.000
49.96000 248.000
49.98000 268.000
50.00000 266.000
50.02000 314.000
50.04000 338.000
50.06000 339.000
50.08000 429.000
50.10000 494.000
50.12000 552.000
50.14000 623.000
50.16000 727.000
50.18000 781.000
50.20000 904.000
50.22000 916.000
50.24000 956.000
50.26000 943.000
50.28000 914.000
50.30000 895.000
50.32000 825.000
50.34000 801.000
50.36000 666.000
50.38000 682.000
50.40000 576.000
50.42000 484.000
50.44000 450.000
50.46000 398.000
50.48000 380.000
50.50000 327.000
50.52000 294.000
50.54000 273.000
50.56000 268.000
50.58000 230.000
50.60000 232.000
50.62000 247.000
50.64000 228.000
50.66000 194.000
50.68000 217.000
50.70000 211.000
50.72000 199.000
50.74000 213.000
50.76000 214.000
50.78000 197.000
50.80000 202.000
50.82000 208.000
50.84000 215.000
50.86000 167.000
50.88000 199.000
50.90000 197.000
50.92000 215.000
50.94000 183.000
50.96000 203.000
50.98000 195.000
51.00000 195.000
51.02000 197.000
51.04000 214.000
51.06000 200.000
51.08000 180.000
51.10000 186.000
51.12000 196.000
51.14000 190.000
51.16000 190.000
51.18000 205.000
51.20000 199.000
51.22000 212.000
51.24000 174.000
51.26000 171.000
51.28000 190.000
51.30000 175.000
51.32000 183.000
51.34000 206.000
51.36000 177.000
51.38000 219.000
51.40000 173.000
51.42000 203.000
51.44000 182.000
51.46000 204.000
51.48000 159.000
51.50000 191.000
51.52000 180.000
51.54000 194.000
51.56000 192.000
51.58000 194.000
51.60000 189.000
51.62000 205.000
51.64000 171.000
51.66000 186.000
51.68000 194.000
51.70000 193.000
51.72000 212.000
51.74000 193.000
51.76000 196.000
51.78000 217.000
51.80000 218.000
51.82000 213.000
51.84000 222.000
51.86000 221.000
51.88000 223.000
51.90000 248.000
51.92000 267.000
51.94000 278.000
51.96000 328.000
51.98000 307.000
52.00000 342.000
52.02000 359.000
52.04000 359.000
52.06000 339.000
52.08000 372.000
52.10000 355.000
52.12000 351.000
52.14000 314.000
52.16000 311.000
52.18000 346.000
52.20000 320.000
52.22000 341.000
52.24000 301.000
52.26000 316.000
52.28000 325.000
52.30000 347.000
52.32000 324.000
52.34000 381.000
52.36000 407.000
52.38000 390.000
52.40000 455.000
52.42000 434.000
52.44000 456.000
52.46000 499.000
52.48000 451.000
52.50000 495.000
52.52000 532.000
52.54000 617.000
52.56000 641.000
52.58000 628.000
52.60000 661.000
52.62000 620.000
52.64000 679.000
52.66000 582.000
52.68000 524.000
52.70000 487.000
52.72000 446.000
52.74000 451.000
52.76000 373.000
52.78000 383.000
52.80000 346.000
52.82000 306.000
52.84000 286.000
52.86000 236.000
52.88000 232.000
52.90000 223.000
52.92000 205.000
52.94000 204.000
52.96000 215.000
52.98000 192.000
53.00000 195.000
53.02000 174.000
53.04000 194.000
53.06000 213.000
53.08000 196.000
53.10000 189.000
53.12000 192.000
53.14000 166.000
53.16000 189.000
53.18000 203.000
53.20000 195.000
53.22000 195.000
53.24000 186.000
53.26000 177.000
53.28000 208.000
53.30000 170.000
53.32000 192.000
53.34000 185.000
53.36000 176.000
53.38000 174.000
53.40000 195.000
53.42000 195.000
53.44000 180.000
53.46000 176.000
53.48000 174.000
53.50000 207.000
53.52000 166.000
53.54000 176.000
53.56000 157.000
53.58000 188.000
53.60000 198.000
53.62000 165.000
53.64000 175.000
53.66000 192.000
53.68000 168.000
53.70000 193.000
53.72000 164.000
53.74000 194.000
53.76000 162.000
53.78000 142.000
53.80000 187.000
53.82000 191.000
53.84000 160.000
53.86000 167.000
53.88000 157.000
53.90000 176.000
53.92000 170.000
53.94000 174.000
53.96000 161.000
53.98000 169.000
54.00000 174.000
54.02000 178.000
54.04000 191.000
54.06000 190.000
54.08000 156.000
54.10000 170.000
54.12000 182.000
54.14000 188.000
54.16000 172.000
54.18000 186.000
54.20000 171.000
54.22000 186.000
54.24000 185.000
54.26000 184.000
54.28000 182.000
54.30000 237.000
54.32000 208.000
54.34000 220.000
54.36000 271.000
54.38000 246.000
54.40000 261.000
54.42000 246.000
54.44000 306.000
54.46000 307.000
54.48000 315.000
54.50000 329.000
54.52000 343.000
54.54000 376.000
54.56000 412.000
54.58000 405.000
54.60000 393.000
54.62000 426.000
54.64000 417.000
54.66000 415.000
54.68000 390.000
54.70000 397.000
54.72000 377.000
54.74000 365.000
54.76000 352.000
54.78000 323.000
54.80000 266.000
54.82000 271.000
54.84000 261.000
54.86000 223.000
54.88000 204.000
54.90000 214.000
54.92000 214.000
54.94000 200.000
54.96000 182.000
54.98000 161.000
55.00000 183.000
55.02000 172.000
55.04000 168.000
55.06000 164.000
55.08000 171.000
55.10000 157.000
55.12000 159.000
55.14000 184.000
55.16000 175.000
55.18000 192.000
55.20000 168.000
55.22000 169.000
55.24000 189.000
55.26000 149.000
55.28000 161.000
55.30000 194.000
55.32000 159.000
55.34000 162.000
55.36000 147.000
55.38000 167.000
55.40000 152.000
55.42000 158.000
55.44000 174.000
55.46000 175.000
55.48000 173.000
55.50000 166.000
55.52000 148.000
55.54000 179.000
55.56000 179.000
55.58000 142.000
55.60000 188.000
55.62000 163.000
55.64000 162.000
55.66000 155.000
55.68000 165.000
55.70000 150.000
55.72000 179.000
55.74000 161.000
55.76000 168.000
55.78000 163.000
55.80000 167.000
55.82000 184.000
55.84000 177.000
55.86000 165.000
55.88000 172.000
55.90000 231.000
55.92000 186.000
55.94000 214.000
55.96000 192.000
55.98000 186.000
56.00000 210.000
56.02000 235.000
56.04000 228.000
56.06000 269.000
56.08000 273.000
56.10000 248.000
56.12000 282.000
56.14000 294.000
56.16000 270.000
56.18000 318.000
56.20000 294.000
56.22000 307.000
56.24000 295.000
56.26000 263.000
56.28000 319.000
56.30000 276.000
56.32000 299.000
56.34000 280.000
56.36000 245.000
56.38000 263.000
56.40000 230.000
56.42000 218.000
56.44000 200.000
56.46000 196.000
56.48000 193.000
56.50000 220.000
56.52000 187.000
56.54000 193.000
56.56000 192.000
56.58000 190.000
56.60000 173.000
56.62000 180.000
56.64000 181.000
56.66000 189.000
56.68000 186.000
56.70000 190.000
56.72000 168.000
56.74000 169.000
56.76000 193.000
56.78000 164.000
56.80000 153.000
56.82000 153.000
56.84000 176.000
56.86000 201.000
56.88000 195.000
56.90000 186.000
56.92000 183.000
56.94000 175.000
56.96000 152.000
56.98000 153.000
57.00000 175.000
57.02000 169.000
57.04000 175.000
57.06000 146.000
57.08000 155.000
57.10000 176.000
57.12000 162.000
57.14000 160.000
57.16000 163.000
57.18000 169.000
57.20000 162.000
57.22000 145.000
57.24000 170.000
57.26000 145.000
57.28000 145.000
57.30000 158.000
57.32000 160.000
57.34000 151.000
57.36000 153.000
57.38000 184.000
57.40000 186.000
57.42000 166.000
57.44000 178.000
57.46000 164.000
57.48000 183.000
57.50000 159.000
57.52000 145.000
57.54000 145.000
57.56000 144.000
57.58000 170.000
57.60000 159.000
57.62000 149.000
57.64000 182.000
57.66000 169.000
57.68000 154.000
57.70000 170.000
57.72000 163.000
57.74000 172.000
57.76000 143.000
57.78000 164.000
57.80000 149.000
57.82000 163.000
57.84000 177.000
57.86000 161.000
57.88000 142.000
57.90000 179.000
57.92000 168.000
57.94000 176.000
57.96000 174.000
57.98000 177.000
58.00000 173.000
58.02000 199.000
58.04000 192.000
58.06000 191.000
58.08000 174.000
58.10000 171.000
58.12000 194.000
58.14000 174.000
58.16000 158.000
58.18000 176.000
58.20000 175.000
58.22000 179.000
58.24000 180.000
58.26000 170.000
58.28000 166.000
58.30000 177.000
58.32000 186.000
58.34000 170.000
58.36000 187.000
58.38000 195.000
58.40000 166.000
58.42000 175.000
58.44000 179.000
58.46000 170.000
58.48000 193.000
58.50000 174.000
58.52000 172.000
58.54000 198.000
58.56000 181.000
58.58000 195.000
58.60000 184.000
58.62000 198.000
58.64000 225.000
58.66000 217.000
58.68000 221.000
58.70000 244.000
58.72000 230.000
58.74000 267.000
58.76000 292.000
58.78000 329.000
58.80000 396.000
58.82000 412.000
58.84000 425.000
58.86000 478.000
58.88000 431.000
58.90000 427.000
58.92000 383.000
58.94000 335.000
58.96000 308.000
58.98000 332.000
59.00000 336.000
59.02000 370.000
59.04000 329.000
59.06000 301.000
59.08000 267.000
59.10000 226.000
59.12000 235.000
59.14000 201.000
59.16000 203.000
59.18000 206.000
59.20000 178.000
59.22000 200.000
59.24000 184.000
59.26000 174.000
59.28000 157.000
59.30000 175.000
59.32000 169.000
59.34000 155.000
59.36000 164.000
59.38000 183.000
59.40000 187.000
59.42000 162.000
59.44000 188.000
59.46000 161.000
59.48000 185.000
59.50000 169.000
59.52000 164.000
59.54000 170.000
59.56000 162.000
59.58000 162.000
59.60000 164.000
59.62000 156.000
59.64000 156.000
59.66000 202.000
59.68000 182.000
59.70000 157.000
59.72000 173.000
59.74000 186.000
59.76000 186.000
59.78000 189.000
59.80000 189.000
59.82000 177.000
59.84000 163.000
59.86000 180.000
59.88000 155.000
59.90000 192.000
59.92000 177.000
59.94000 169.000
59.96000 170.000
59.98000 169.000
60.00000 168.000
60.02000 169.000
60.04000 178.000
60.06000 195.000
60.08000 184.000
60.10000 174.000
60.12000 205.000
60.14000 176.000
60.16000 187.000
60.18000 176.000
60.20000 168.000
60.22000 193.000
60.24000 182.000
60.26000 200.000
60.28000 177.000
60.30000 171.000
60.32000 191.000
60.34000 198.000
60.36000 201.000
60.38000 190.000
60.40000 212.000
60.42000 221.000
60.44000 220.000
60.46000 235.000
60.48000 248.000
60.50000 279.000
60.52000 268.000
60.54000 310.000
60.56000 270.000
60.58000 296.000
60.60000 335.000
60.62000 368.000
60.64000 413.000
60.66000 457.000
60.68000 576.000
60.70000 618.000
60.72000 608.000
60.74000 744.000
60.76000 787.000
60.78000 806.000
60.80000 977.000
60.82000 933.000
60.84000 1011.000
60.86000 1027.000
60.88000 994.000
60.90000 953.000
60.92000 863.000
60.94000 799.000
60.96000 708.000
60.98000 747.000
61.00000 699.000
61.02000 632.000
61.04000 558.000
61.06000 491.000
61.08000 468.000
61.10000 414.000
61.12000 345.000
61.14000 305.000
61.16000 307.000
61.18000 262.000
61.20000 253.000
61.22000 224.000
61.24000 212.000
61.26000 233.000
61.28000 202.000
61.30000 200.000
61.32000 191.000
61.34000 172.000
61.36000 178.000
61.38000 202.000
61.40000 177.000
61.42000 195.000
61.44000 198.000
61.46000 175.000
61.48000 188.000
61.50000 169.000
61.52000 175.000
61.54000 184.000
61.56000 169.000
61.58000 205.000
61.60000 182.000
61.62000 165.000
61.64000 176.000
61.66000 188.000
61.68000 185.000
61.70000 173.000
61.72000 164.000
61.74000 167.000
61.76000 179.000
61.78000 166.000
61.80000 188.000
61.82000 175.000
61.84000 181.000
61.86000 172.000
61.88000 195.000
61.90000 180.000
61.92000 173.000
61.94000 164.000
61.96000 203.000
61.98000 164.000
62.00000 187.000
62.02000 190.000
62.04000 158.000
62.06000 169.000
62.08000 176.000
62.10000 188.000
62.12000 177.000
62.14000 193.000
62.16000 181.000
62.18000 200.000
62.20000 217.000
62.22000 178.000
62.24000 185.000
62.26000 202.000
62.28000 191.000
62.30000 203.000
62.32000 187.000
62.34000 194.000
62.36000 184.000
62.38000 166.000
62.40000 198.000
62.42000 182.000
62.44000 188.000
62.46000 207.000
62.48000 208.000
62.50000 190.000
62.52000 200.000
62.54000 190.000
62.56000 226.000
62.58000 266.000
62.60000 253.000
62.62000 221.000
62.64000 294.000
62.66000 311.000
62.68000 366.000
62.70000 381.000
62.72000 414.000
62.74000 461.000
62.76000 509.000
62.78000 589.000
62.80000 544.000
62.82000 558.000
62.84000 529.000
62.86000 465.000
62.88000 462.000
62.90000 433.000
62.92000 426.000
62.94000 432.000
62.96000 453.000
62.98000 398.000
63.00000 371.000
63.02000 362.000
63.04000 310.000
63.06000 260.000
63.08000 275.000
63.10000 233.000
63.12000 255.000
63.14000 216.000
63.16000 221.000
63.18000 213.000
63.20000 194.000
63.22000 197.000
63.24000 190.000
63.26000 211.000
63.28000 194.000
63.30000 164.000
63.32000 190.000
63.34000 176.000
63.36000 154.000
63.38000 181.000
63.40000 192.000
63.42000 199.000
63.44000 161.000
63.46000 194.000
63.48000 188.000
63.50000 192.000
63.52000 187.000
63.54000 166.000
63.56000 155.000
63.58000 183.000
63.60000 169.000
63.62000 153.000
63.64000 174.000
63.66000 171.000
63.68000 182.000
63.70000 152.000
63.72000 174.000
63.74000 192.000
63.76000 179.000
63.78000 183.000
63.80000 165.000
63.82000 195.000
63.84000 174.000
63.86000 200.000
63.88000 194.000
63.90000 191.000
63.92000 177.000
63.94000 186.000
63.96000 180.000
63.98000 182.000
64.00000 190.000
64.02000 201.000
64.04000 203.000
64.06000 213.000
64.08000 206.000
64.10000 225.000
64.12000 222.000
64.14000 226.000
64.16000 231.000
64.18000 281.000
64.20000 256.000
64.22000 273.000
64.24000 290.000
64.26000 311.000
64.28000 303.000
64.30000 287.000
64.32000 293.000
64.34000 255.000
64.36000 272.000
64.38000 270.000
64.40000 293.000
64.42000 283.000
64.44000 249.000
64.46000 238.000
64.48000 223.000
64.50000 261.000
64.52000 234.000
64.54000 203.000
64.56000 247.000
64.58000 208.000
64.60000 208.000
64.62000 211.000
64.64000 193.000
64.66000 189.000
64.68000 238.000
64.70000 218.000
64.72000 211.000
64.74000 181.000
64.76000 222.000
64.78000 190.000
64.80000 180.000
64.82000 202.000
64.84000 183.000
64.86000 214.000
64.88000 204.000
64.90000 215.000
64.92000 199.000
64.94000 189.000
64.96000 178.000
64.98000 195.000
65.00000 191.000
65.02000 186.000
65.04000 183.000
65.06000 175.000
65.08000 192.000
65.10000 199.000
65.12000 201.000
65.14000 179.000
65.16000 167.000
65.18000 187.000
65.20000 166.000
65.22000 189.000
65.24000 179.000
65.26000 153.000
65.28000 157.000
65.30000 187.000
65.32000 165.000
65.34000 175.000
65.36000 174.000
65.38000 167.000
65.40000 181.000
65.42000 173.000
65.44000 208.000
65.46000 200.000
65.48000 197.000
65.50000 164.000
65.52000 189.000
65.54000 184.000
65.56000 185.000
65.58000 165.000
65.60000 177.000
65.62000 165.000
65.64000 163.000
65.66000 176.000
65.68000 171.000
65.70000 183.000
65.72000 155.000
65.74000 179.000
65.76000 198.000
65.78000 161.000
65.80000 150.000
65.82000 177.000
65.84000 184.000
65.86000 182.000
65.88000 173.000
65.90000 190.000
65.92000 203.000
65.94000 201.000
65.96000 192.000
65.98000 209.000
66.00000 193.000
66.02000 216.000
66.04000 237.000
66.06000 221.000
66.08000 241.000
66.10000 214.000
66.12000 209.000
66.14000 217.000
66.16000 246.000
66.18000 230.000
66.20000 202.000
66.22000 234.000
66.24000 249.000
66.26000 251.000
66.28000 219.000
66.30000 272.000
66.32000 249.000
66.34000 300.000
66.36000 292.000
66.38000 303.000
66.40000 343.000
66.42000 354.000
66.44000 383.000
66.46000 414.000
66.48000 455.000
66.50000 460.000
66.52000 428.000
66.54000 477.000
66.56000 482.000
66.58000 479.000
66.60000 472.000
66.62000 493.000
66.64000 507.000
66.66000 518.000
66.68000 498.000
66.70000 439.000
66.72000 488.000
66.74000 430.000
66.76000 438.000
66.78000 386.000
66.80000 374.000
66.82000 332.000
66.84000 356.000
66.86000 312.000
66.88000 279.000
66.90000 288.000
66.92000 298.000
66.94000 253.000
66.96000 253.000
66.98000 218.000
67.00000 256.000
67.02000 191.000
67.04000 187.000
67.06000 196.000
67.08000 185.000
67.10000 191.000
67.12000 212.000
67.14000 225.000
67.16000 184.000
67.18000 214.000
67.20000 200.000
67.22000 183.000
67.24000 225.000
67.26000 223.000
67.28000 171.000
67.30000 218.000
67.32000 218.000
67.34000 207.000
67.36000 213.000
67.38000 208.000
67.40000 201.000
67.42000 209.000
67.44000 205.000
67.46000 182.000
67.48000 193.000
67.50000 214.000
67.52000 222.000
67.54000 214.000
67.56000 200.000
67.58000 208.000
67.60000 207.000
67.62000 220.000
67.64000 224.000
67.66000 238.000
67.68000 208.000
67.70000 208.000
67.72000 209.000
67.74000 224.000
67.76000 226.000
67.78000 262.000
67.80000 215.000
67.82000 253.000
67.84000 261.000
67.86000 253.000
67.88000 273.000
67.90000 319.000
67.92000 331.000
67.94000 306.000
67.96000 326.000
67.98000 331.000
68.00000 356.000
68.02000 349.000
68.04000 311.000
68.06000 318.000
68.08000 287.000
68.10000 309.000
68.12000 329.000
68.14000 343.000
68.16000 360.000
68.18000 319.000
68.20000 367.000
68.22000 385.000
68.24000 417.000
68.26000 418.000
68.28000 459.000
68.30000 496.000
68.32000 533.000
68.34000 577.000
68.36000 591.000
68.38000 654.000
68.40000 638.000
68.42000 624.000
68.44000 586.000
68.46000 553.000
68.48000 572.000
68.50000 565.000
68.52000 546.000
68.54000 528.000
68.56000 485.000
68.58000 481.000
68.60000 423.000
68.62000 403.000
68.64000 368.000
68.66000 353.000
68.68000 340.000
68.70000 318.000
68.72000 295.000
68.74000 283.000
68.76000 264.000
68.78000 224.000
68.80000 233.000
68.82000 192.000
68.84000 202.000
68.86000 170.000
68.88000 206.000
68.90000 185.000
68.92000 173.000
68.94000 197.000
68.96000 161.000
68.98000 168.000
69.00000 174.000
69.02000 166.000
69.04000 168.000
69.06000 178.000
69.08000 169.000
69.10000 159.000
69.12000 169.000
69.14000 134.000
69.16000 174.000
69.18000 140.000
69.20000 146.000
69.22000 157.000
69.24000 161.000
69.26000 135.000
69.28000 153.000
69.30000 168.000
69.32000 180.000
69.34000 175.000
69.36000 155.000
69.38000 163.000
69.40000 159.000
69.42000 151.000
69.44000 176.000
69.46000 144.000
69.48000 159.000
69.50000 176.000
69.52000 139.000
69.54000 139.000
69.56000 146.000
69.58000 148.000
69.60000 152.000
69.62000 146.000
69.64000 155.000
69.66000 138.000
69.68000 175.000
69.70000 175.000
69.72000 158.000
69.74000 168.000
69.76000 146.000
69.78000 147.000
69.80000 138.000
69.82000 188.000
69.84000 159.000
69.86000 182.000
69.88000 145.000
69.90000 164.000
69.92000 141.000
69.94000 137.000
69.96000 157.000
