5.00000 3704.000
5.04000 3707.000
5.08000 3773.000
5.12000 3763.000
5.16000 3642.000
5.20000 3767.000
5.24000 3670.000
5.28000 3602.000
5.32000 3592.000
5.36000 3561.000
5.40000 3586.000
5.44000 3560.000
5.48000 3520.000
5.52000 3425.000
5.56000 3409.000
5.60000 3468.000
5.64000 3339.000
5.68000 3416.000
5.72000 3382.000
5.76000 3319.000
5.80000 3199.000
5.84000 3255.000
5.88000 3237.000
5.92000 3235.000
5.96000 3270.000
6.00000 3195.000
6.04000 3158.000
6.08000 3127.000
6.12000 3115.000
6.16000 3097.000
6.20000 3073.000
6.24000 3088.000
6.28000 3023.000
6.32000 3119.000
6.36000 3048.000
6.40000 3038.000
6.44000 2886.000
6.48000 2908.000
6.52000 3003.000
6.56000 2931.000
6.60000 2839.000
6.64000 2864.000
6.68000 2894.000
6.72000 2809.000
6.76000 2897.000
6.80000 2882.000
6.84000 2833.000
6.88000 2756.000
6.92000 2798.000
6.96000 2778.000
7.00000 2762.000
7.04000 2658.000
7.08000 2775.000
7.12000 2655.000
7.16000 2746.000
7.20000 2723.000
7.24000 2644.000
7.28000 2696.000
7.32000 2620.000
7.36000 2666.000
7.40000 2604.000
7.44000 2747.000
7.48000 2574.000
7.52000 2599.000
7.56000 2597.000
7.60000 2542.000
7.64000 2674.000
7.68000 2486.000
7.72000 2537.000
7.76000 2468.000
7.80000 2497.000
7.84000 2449.000
7.88000 2445.000
7.92000 2456.000
7.96000 2471.000
8.00000 2410.000
8.04000 2394.000
8.08000 2501.000
8.12000 2438.000
8.16000 2405.000
8.20000 2425.000
8.24000 2309.000
8.28000 2415.000
8.32000 2388.000
8.36000 2358.000
8.40000 2371.000
8.44000 2332.000
8.48000 2315.000
8.52000 2354.000
8.56000 2351.000
8.60000 2387.000
8.64000 2285.000
8.68000 2262.000
8.72000 2323.000
8.76000 2349.000
8.80000 2275.000
8.84000 2278.000
8.88000 2299.000
8.92000 2267.000
8.96000 2285.000
9.00000 2223.000
9.04000 2228.000
9.08000 2147.000
9.12000 2296.000
9.16000 2226.000
9.20000 2253.000
9.24000 2217.000
9.28000 2170.000
9.32000 2206.000
9.36000 2153.000
9.40000 2146.000
9.44000 2178.000
9.48000 2140.000
9.52000 2090.000
9.56000 2073.000
9.60000 2154.000
9.64000 2089.000
9.68000 2082.000
9.72000 2030.000
9.76000 2183.000
9.80000 2031.000
9.84000 2119.000
9.88000 2061.000
9.92000 1997.000
9.96000 2024.000
10.00000 1970.000
10.04000 2039.000
10.08000 2092.000
10.12000 2048.000
10.16000 2033.000
10.20000 2055.000
10.24000 1956.000
10.28000 1985.000
10.32000 1979.000
10.36000 1983.000
10.40000 1990.000
10.44000 2014.000
10.48000 1976.000
10.52000 2055.000
10.56000 2060.000
10.60000 1958.000
10.64000 1986.000
10.68000 1999.000
10.72000 1978.000
10.76000 1946.000
10.80000 1970.000
10.84000 1965.000
10.88000 1980.000
10.92000 1933.000
10.96000 1949.000
11.00000 1956.000
11.04000 1989.000
11.08000 1891.000
11.12000 1944.000
11.16000 1903.000
11.20000 1948.000
11.24000 1992.000
11.28000 1917.000
11.32000 1971.000
11.36000 1951.000
11.40000 1985.000
11.44000 1985.000
11.48000 1947.000
11.52000 1993.000
11.56000 1976.000
11.60000 2059.000
11.64000 2061.000
11.68000 1996.000
11.72000 1932.000
11.76000 2100.000
11.80000 2114.000
11.84000 2144.000
11.88000 2160.000
11.92000 2163.000
11.96000 2141.000
12.00000 2219.000
12.04000 2218.000
12.08000 2165.000
12.12000 2196.000
12.16000 2208.000
12.20000 2240.000
12.24000 2297.000
12.28000 2352.000
12.32000 2375.000
12.36000 2391.000
12.40000 2367.000
12.44000 2360.000
12.48000 2468.000
12.52000 2431.000
12.56000 2489.000
12.60000 2499.000
12.64000 2464.000
12.68000 2573.000
12.72000 2624.000
12.76000 2536.000
12.80000 2492.000
12.84000 2484.000
12.88000 2552.000
12.92000 2475.000
12.96000 2454.000
13.00000 2485.000
13.04000 2618.000
13.08000 2647.000
13.12000 2620.000
13.16000 2710.000
13.20000 2778.000
13.24000 2913.000
13.28000 3059.000
13.32000 3124.000
13.36000 3340.000
13.40000 3513.000
13.44000 3847.000
13.48000 4203.000
13.52000 4660.000
13.56000 5058.000
13.60000 5623.000
13.64000 6444.000
13.68000 7193.000
13.72000 8438.000
13.76000 9845.000
13.80000 11648.000
13.84000 14076.000
13.88000 17362.000
13.92000 21535.000
13.96000 26890.000
14.00000 34118.000
14.04000 42235.000
14.08000 48798.000
14.12000 46988.000
14.16000 34609.000
14.20000 21816.000
14.24000 13081.000
14.28000 8742.000
14.32000 6167.000
14.36000 4703.000
14.40000 3928.000
14.44000 3350.000
14.48000 2978.000
14.52000 2764.000
14.56000 2687.000
14.60000 2616.000
14.64000 2440.000
14.68000 2532.000
14.72000 2338.000
14.76000 2314.000
14.80000 2199.000
14.84000 2207.000
14.88000 2204.000
14.92000 2173.000
14.96000 2175.000
15.00000 2139.000
15.04000 2067.000
15.08000 2072.000
15.12000 2113.000
15.16000 1977.000
15.20000 1937.000
15.24000 2036.000
15.28000 2040.000
15.32000 2048.000
15.36000 1972.000
15.40000 2040.000
15.44000 2071.000
15.48000 1993.000
15.52000 1880.000
15.56000 1968.000
15.60000 1987.000
15.64000 1957.000
15.68000 1968.000
15.72000 1933.000
15.76000 1933.000
15.80000 1913.000
15.84000 1917.000
15.88000 1821.000
15.92000 1908.000
15.96000 1928.000
16.00000 1872.000
16.04000 1865.000
16.08000 1912.000
16.12000 1884.000
16.16000 1916.000
16.20000 1813.000
16.24000 1864.000
16.28000 1824.000
16.32000 1854.000
16.36000 1842.000
16.40000 1789.000
16.44000 1895.000
16.48000 1862.000
16.52000 1796.000
16.56000 1828.000
16.60000 1798.000
16.64000 1857.000
16.68000 1888.000
16.72000 1826.000
16.76000 1854.000
16.80000 1821.000
16.84000 1909.000
16.88000 1866.000
16.92000 1817.000
16.96000 1849.000
17.00000 1873.000
17.04000 1796.000
17.08000 1814.000
17.12000 1950.000
17.16000 1837.000
17.20000 1856.000
17.24000 1901.000
17.28000 1835.000
17.32000 1896.000
17.36000 1854.000
17.40000 1881.000
17.44000 1934.000
17.48000 1907.000
17.52000 1920.000
17.56000 1895.000
17.60000 1920.000
17.64000 1955.000
17.68000 1962.000
17.72000 1972.000
17.76000 2015.000
17.80000 1871.000
17.84000 1906.000
17.88000 1956.000
17.92000 2072.000
17.96000 1961.000
18.00000 1900.000
18.04000 1947.000
18.08000 2012.000
18.12000 2003.000
18.16000 2031.000
18.20000 2059.000
18.24000 2003.000
18.28000 1987.000
18.32000 2013.000
18.36000 2014.000
18.40000 2059.000
18.44000 2095.000
18.48000 2064.000
18.52000 2101.000
18.56000 2084.000
18.60000 2137.000
18.64000 2067.000
18.68000 2145.000
18.72000 2114.000
18.76000 2024.000
18.80000 2106.000
18.84000 2113.000
18.88000 2173.000
18.92000 2093.000
18.96000 2150.000
19.00000 2144.000
19.04000 2198.000
19.08000 2181.000
19.12000 2135.000
19.16000 2284.000
19.20000 2244.000
19.24000 2197.000
19.28000 2223.000
19.32000 2299.000
19.36000 2285.000
19.40000 2368.000
19.44000 2285.000
19.48000 2365.000
19.52000 2466.000
19.56000 2521.000
19.60000 2631.000
19.64000 2595.000
19.68000 2703.000
19.72000 2809.000
19.76000 2905.000
19.80000 3204.000
19.84000 3424.000
19.88000 3719.000
19.92000 3936.000
19.96000 4208.000
20.00000 4020.000
20.04000 3678.000
20.08000 3244.000
20.12000 2995.000
20.16000 2677.000
20.20000 2614.000
20.24000 2486.000
20.28000 2526.000
20.32000 2488.000
20.36000 2501.000
20.40000 2570.000
20.44000 2548.000
20.48000 2447.000
20.52000 2505.000
20.56000 2579.000
20.60000 2474.000
20.64000 2580.000
20.68000 2506.000
20.72000 2608.000
20.76000 2589.000
20.80000 2487.000
20.84000 2506.000
20.88000 2517.000
20.92000 2553.000
20.96000 2538.000
21.00000 2742.000
21.04000 2567.000
21.08000 2693.000
21.12000 2612.000
21.16000 2707.000
21.20000 2680.000
21.24000 2624.000
21.28000 2556.000
21.32000 2681.000
21.36000 2662.000
21.40000 2619.000
21.44000 2608.000
21.48000 2701.000
21.52000 2644.000
21.56000 2714.000
21.60000 2689.000
21.64000 2630.000
21.68000 2766.000
21.72000 2672.000
21.76000 2737.000
21.80000 2755.000
21.84000 2778.000
21.88000 2772.000
21.92000 2809.000
21.96000 2819.000
22.00000 2778.000
22.04000 2841.000
22.08000 2786.000
22.12000 2794.000
22.16000 2817.000
22.20000 2840.000
22.24000 2786.000
22.28000 2855.000
22.32000 2853.000
22.36000 2842.000
22.40000 2913.000
22.44000 2927.000
22.48000 2880.000
22.52000 2792.000
22.56000 2853.000
22.60000 2843.000
22.64000 2916.000
22.68000 2863.000
22.72000 3019.000
22.76000 2949.000
22.80000 2946.000
22.84000 2982.000
22.88000 3014.000
22.92000 2951.000
22.96000 3026.000
23.00000 3034.000
23.04000 3097.000
23.08000 3175.000
23.12000 3174.000
23.16000 3321.000
23.20000 3349.000
23.24000 3496.000
23.28000 3738.000
23.32000 3983.000
23.36000 4353.000
23.40000 4618.000
23.44000 5004.000
23.48000 5164.000
23.52000 4814.000
23.56000 4291.000
23.60000 3808.000
23.64000 3456.000
23.68000 3335.000
23.72000 3194.000
23.76000 3069.000
23.80000 3292.000
23.84000 3105.000
23.88000 2969.000
23.92000 3054.000
23.96000 3021.000
24.00000 3048.000
24.04000 3187.000
24.08000 3263.000
24.12000 3276.000
24.16000 3393.000
24.20000 3471.000
24.24000 3611.000
24.28000 3936.000
24.32000 4240.000
24.36000 4645.000
24.40000 5310.000
24.44000 6076.000
24.48000 6288.000
24.52000 5710.000
24.56000 5090.000
24.60000 4361.000
24.64000 3572.000
24.68000 3408.000
24.72000 3133.000
24.76000 3102.000
24.80000 3167.000
24.84000 2998.000
24.88000 3084.000
24.92000 2936.000
24.96000 2998.000
25.00000 2821.000
25.04000 2928.000
25.08000 3003.000
25.12000 3066.000
25.16000 3095.000
25.20000 3022.000
25.24000 2986.000
25.28000 3057.000
25.32000 2958.000
25.36000 2984.000
25.40000 2929.000
25.44000 2980.000
25.48000 3075.000
25.52000 3022.000
25.56000 2964.000
25.60000 3043.000
25.64000 3008.000
25.68000 2907.000
25.72000 2968.000
25.76000 2954.000
25.80000 2914.000
25.84000 2913.000
25.88000 2969.000
25.92000 2931.000
25.96000 2818.000
26.00000 2930.000
26.04000 2911.000
26.08000 2882.000
26.12000 2851.000
26.16000 2870.000
26.20000 2878.000
26.24000 2893.000
26.28000 2871.000
26.32000 2919.000
26.36000 2863.000
26.40000 2847.000
26.44000 2957.000
26.48000 2877.000
26.52000 2838.000
26.56000 2851.000
26.60000 2850.000
26.64000 2916.000
26.68000 2855.000
26.72000 2866.000
26.76000 2946.000
26.80000 2947.000
26.84000 2926.000
26.88000 2951.000
26.92000 2820.000
26.96000 2886.000
27.00000 2944.000
27.04000 2891.000
27.08000 2952.000
27.12000 2800.000
27.16000 2981.000
27.20000 2917.000
27.24000 2907.000
27.28000 2962.000
27.32000 2987.000
27.36000 2910.000
27.40000 3029.000
27.44000 2951.000
27.48000 3003.000
27.52000 3008.000
27.56000 2963.000
27.60000 3096.000
27.64000 3030.000
27.68000 3024.000
27.72000 3042.000
27.76000 3223.000
27.80000 3131.000
27.84000 3210.000
27.88000 3527.000
27.92000 3657.000
27.96000 3812.000
28.00000 4261.000
28.04000 4749.000
28.08000 5497.000
28.12000 6469.000
28.16000 8050.000
28.20000 9716.000
28.24000 11873.000
28.28000 14616.000
28.32000 18243.000
28.36000 22618.000
28.40000 26254.000
28.44000 25609.000
28.48000 21580.000
28.52000 15046.000
28.56000 10347.000
28.60000 6756.000
28.64000 5061.000
28.68000 4099.000
28.72000 3638.000
28.76000 3161.000
28.80000 3061.000
28.84000 2898.000
28.88000 2919.000
28.92000 2848.000
28.96000 2925.000
29.00000 2868.000
29.04000 2760.000
29.08000 2822.000
29.12000 2837.000
29.16000 2819.000
29.20000 2758.000
29.24000 2727.000
29.28000 2783.000
29.32000 2687.000
29.36000 2738.000
29.40000 2706.000
29.44000 2678.000
29.48000 2745.000
29.52000 2662.000
29.56000 2616.000
29.60000 2724.000
29.64000 2669.000
29.68000 2658.000
29.72000 2637.000
29.76000 2604.000
29.80000 2607.000
29.84000 2673.000
29.88000 2679.000
29.92000 2684.000
29.96000 2591.000
30.00000 2706.000
30.04000 2520.000
30.08000 2535.000
30.12000 2675.000
30.16000 2613.000
30.20000 2660.000
30.24000 2635.000
30.28000 2613.000
30.32000 2643.000
30.36000 2616.000
30.40000 2671.000
30.44000 2685.000
30.48000 2606.000
30.52000 2624.000
30.56000 2641.000
30.60000 2615.000
30.64000 2641.000
30.68000 2773.000
30.72000 2779.000
30.76000 2817.000
30.80000 2836.000
30.84000 2788.000
30.88000 2907.000
30.92000 2824.000
30.96000 2901.000
31.00000 2768.000
31.04000 2770.000
31.08000 2633.000
31.12000 2748.000
31.16000 2758.000
31.20000 2737.000
31.24000 2682.000
31.28000 2694.000
31.32000 2920.000
31.36000 2801.000
31.40000 3021.000
31.44000 3126.000
31.48000 3249.000
31.52000 3494.000
31.56000 3886.000
31.60000 4317.000
31.64000 5105.000
31.68000 5920.000
31.72000 6880.000
31.76000 8124.000
31.80000 9257.000
31.84000 10039.000
31.88000 9567.000
31.92000 8241.000
31.96000 6725.000
32.00000 5059.000
32.04000 3997.000
32.08000 3462.000
32.12000 3116.000
32.16000 2823.000
32.20000 2630.000
32.24000 2570.000
32.28000 2585.000
32.32000 2485.000
32.36000 2487.000
32.40000 2476.000
32.44000 2507.000
32.48000 2414.000
32.52000 2309.000
32.56000 2381.000
32.60000 2401.000
32.64000 2421.000
32.68000 2298.000
32.72000 2321.000
32.76000 2262.000
32.80000 2241.000
32.84000 2195.000
32.88000 2163.000
32.92000 2242.000
32.96000 2194.000
33.00000 2177.000
33.04000 2162.000
33.08000 2136.000
33.12000 2142.000
33.16000 2191.000
33.20000 2124.000
33.24000 2115.000
33.28000 2065.000
33.32000 2123.000
33.36000 2060.000
33.40000 2167.000
33.44000 2119.000
33.48000 2034.000
33.52000 2107.000
33.56000 2069.000
33.60000 2130.000
33.64000 2103.000
33.68000 2038.000
33.72000 2107.000
33.76000 2085.000
33.80000 2028.000
33.84000 2058.000
33.88000 2022.000
33.92000 2040.000
33.96000 2016.000
34.00000 1997.000
34.04000 2008.000
34.08000 2118.000
34.12000 1962.000
34.16000 2042.000
34.20000 1958.000
34.24000 2025.000
34.28000 1917.000
34.32000 2044.000
34.36000 1874.000
34.40000 1962.000
34.44000 1957.000
34.48000 1989.000
34.52000 2022.000
34.56000 1847.000
34.60000 2078.000
34.64000 2037.000
34.68000 2136.000
34.72000 2096.000
34.76000 2189.000
34.80000 2355.000
34.84000 2676.000
34.88000 2673.000
34.92000 2918.000
34.96000 2939.000
35.00000 2681.000
35.04000 2563.000
35.08000 2341.000
35.12000 2047.000
35.16000 1964.000
35.20000 1892.000
35.24000 1853.000
35.28000 1849.000
35.32000 1820.000
35.36000 1762.000
35.40000 1865.000
35.44000 1759.000
35.48000 1782.000
35.52000 1721.000
35.56000 1729.000
35.60000 1745.000
35.64000 1753.000
35.68000 1818.000
35.72000 1792.000
35.76000 1761.000
35.80000 1722.000
35.84000 1692.000
35.88000 1766.000
35.92000 1652.000
35.96000 1789.000
36.00000 1695.000
36.04000 1658.000
36.08000 1629.000
36.12000 1704.000
36.16000 1627.000
36.20000 1713.000
36.24000 1685.000
36.28000 1595.000
36.32000 1642.000
36.36000 1644.000
36.40000 1616.000
36.44000 1603.000
36.48000 1644.000
36.52000 1580.000
36.56000 1641.000
36.60000 1579.000
36.64000 1636.000
36.68000 1600.000
36.72000 1596.000
36.76000 1617.000
36.80000 1594.000
36.84000 1570.000
36.88000 1626.000
36.92000 1657.000
36.96000 1616.000
37.00000 1710.000
37.04000 1575.000
37.08000 1634.000
37.12000 1655.000
37.16000 1673.000
37.20000 1696.000
37.24000 1707.000
37.28000 1650.000
37.32000 1637.000
37.36000 1592.000
37.40000 1550.000
37.44000 1554.000
37.48000 1554.000
37.52000 1545.000
37.56000 1561.000
37.60000 1526.000
37.64000 1489.000
37.68000 1496.000
37.72000 1444.000
37.76000 1515.000
37.80000 1479.000
37.84000 1380.000
37.88000 1423.000
37.92000 1426.000
37.96000 1485.000
38.00000 1467.000
38.04000 1510.000
38.08000 1410.000
38.12000 1442.000
38.16000 1413.000
38.20000 1358.000
38.24000 1517.000
38.28000 1461.000
38.32000 1481.000
38.36000 1431.000
38.40000 1524.000
38.44000 1448.000
38.48000 1515.000
38.52000 1448.000
38.56000 1437.000
38.60000 1508.000
38.64000 1395.000
38.68000 1436.000
38.72000 1499.000
38.76000 1418.000
38.80000 1400.000
38.84000 1413.000
38.88000 1384.000
38.92000 1435.000
38.96000 1447.000
39.00000 1399.000
39.04000 1425.000
39.08000 1495.000
39.12000 1458.000
39.16000 1409.000
39.20000 1450.000
39.24000 1411.000
39.28000 1406.000
39.32000 1440.000
39.36000 1417.000
39.40000 1433.000
39.44000 1342.000
39.48000 1400.000
39.52000 1480.000
39.56000 1411.000
39.60000 1421.000
39.64000 1351.000
39.68000 1367.000
39.72000 1462.000
39.76000 1412.000
39.80000 1456.000
39.84000 1459.000
39.88000 1493.000
39.92000 1543.000
39.96000 1379.000
40.00000 1498.000
40.04000 1482.000
40.08000 1468.000
40.12000 1457.000
40.16000 1606.000
40.20000 1712.000
40.24000 1835.000
40.28000 1932.000
40.32000 2131.000
40.36000 2414.000
40.40000 2858.000
40.44000 3158.000
40.48000 3476.000
40.52000 3714.000
40.56000 3840.000
40.60000 3945.000
40.64000 3840.000
40.68000 3550.000
40.72000 3178.000
40.76000 2603.000
40.80000 2260.000
40.84000 1920.000
40.88000 1747.000
40.92000 1616.000
40.96000 1581.000
41.00000 1512.000
41.04000 1576.000
41.08000 1479.000
41.12000 1568.000
41.16000 1478.000
41.20000 1489.000
41.24000 1452.000
41.28000 1477.000
41.32000 1520.000
41.36000 1520.000
41.40000 1497.000
41.44000 1413.000
41.48000 1442.000
41.52000 1425.000
41.56000 1461.000
41.60000 1452.000
41.64000 1547.000
41.68000 1527.000
41.72000 1450.000
41.76000 1467.000
41.80000 1446.000
41.84000 1556.000
41.88000 1465.000
41.92000 1514.000
41.96000 1486.000
42.00000 1507.000
42.04000 1550.000
42.08000 1470.000
42.12000 1484.000
42.16000 1513.000
42.20000 1559.000
42.24000 1509.000
42.28000 1574.000
42.32000 1606.000
42.36000 1687.000
42.40000 1758.000
42.44000 1837.000
42.48000 1912.000
42.52000 2049.000
42.56000 2173.000
42.60000 2198.000
42.64000 2077.000
42.68000 2081.000
42.72000 1978.000
42.76000 1936.000
42.80000 1915.000
42.84000 1886.000
42.88000 2028.000
42.92000 2299.000
42.96000 2553.000
43.00000 2933.000
43.04000 3250.000
43.08000 3529.000
43.12000 3587.000
43.16000 3474.000
43.20000 3378.000
43.24000 3044.000
43.28000 2798.000
43.32000 2455.000
43.36000 2152.000
43.40000 1804.000
43.44000 1808.000
43.48000 1654.000
43.52000 1520.000
43.56000 1548.000
43.60000 1463.000
43.64000 1516.000
43.68000 1546.000
43.72000 1470.000
43.76000 1474.000
43.80000 1413.000
43.84000 1463.000
43.88000 1451.000
43.92000 1460.000
43.96000 1397.000
44.00000 1396.000
44.04000 1485.000
44.08000 1407.000
44.12000 1487.000
44.16000 1394.000
44.20000 1388.000
44.24000 1400.000
44.28000 1424.000
44.32000 1376.000
44.36000 1432.000
44.40000 1406.000
44.44000 1407.000
44.48000 1447.000
44.52000 1334.000
44.56000 1421.000
44.60000 1382.000
44.64000 1452.000
44.68000 1392.000
44.72000 1405.000
44.76000 1344.000
44.80000 1360.000
44.84000 1319.000
44.88000 1371.000
44.92000 1303.000
44.96000 1380.000
45.00000 1417.000
45.04000 1418.000
45.08000 1346.000
45.12000 1366.000
45.16000 1386.000
45.20000 1390.000
45.24000 1344.000
45.28000 1369.000
45.32000 1316.000
45.36000 1385.000
45.40000 1375.000
45.44000 1510.000
45.48000 1442.000
45.52000 1389.000
45.56000 1344.000
45.60000 1493.000
45.64000 1550.000
45.68000 1563.000
45.72000 1484.000
45.76000 1491.000
45.80000 1508.000
45.84000 1488.000
45.88000 1479.000
45.92000 1406.000
45.96000 1373.000
46.00000 1325.000
46.04000 1412.000
46.08000 1355.000
46.12000 1348.000
46.16000 1352.000
46.20000 1312.000
46.24000 1370.000
46.28000 1328.000
46.32000 1276.000
46.36000 1372.000
46.40000 1320.000
46.44000 1301.000
46.48000 1276.000
46.52000 1233.000
46.56000 1266.000
46.60000 1309.000
46.64000 1349.000
46.68000 1384.000
46.72000 1305.000
46.76000 1300.000
46.80000 1333.000
46.84000 1245.000
46.88000 1327.000
46.92000 1325.000
46.96000 1330.000
47.00000 1345.000
47.04000 1281.000
47.08000 1301.000
47.12000 1398.000
47.16000 1375.000
47.20000 1390.000
47.24000 1360.000
47.28000 1405.000
47.32000 1475.000
47.36000 1521.000
47.40000 1496.000
47.44000 1521.000
47.48000 1433.000
47.52000 1438.000
47.56000 1344.000
47.60000 1320.000
47.64000 1329.000
47.68000 1365.000
47.72000 1280.000
47.76000 1319.000
47.80000 1299.000
47.84000 1223.000
47.88000 1292.000
47.92000 1278.000
47.96000 1278.000
48.00000 1320.000
48.04000 1273.000
48.08000 1282.000
48.12000 1252.000
48.16000 1269.000
48.20000 1234.000
48.24000 1179.000
48.28000 1248.000
48.32000 1331.000
48.36000 1270.000
48.40000 1208.000
48.44000 1244.000
48.48000 1242.000
48.52000 1263.000
48.56000 1262.000
48.60000 1245.000
48.64000 1244.000
48.68000 1263.000
48.72000 1258.000
48.76000 1254.000
48.80000 1198.000
48.84000 1211.000
48.88000 1240.000
48.92000 1238.000
48.96000 1232.000
49.00000 1248.000
49.04000 1241.000
49.08000 1197.000
49.12000 1254.000
49.16000 1166.000
49.20000 1227.000
49.24000 1267.000
49.28000 1225.000
49.32000 1294.000
49.36000 1326.000
49.40000 1269.000
49.44000 1191.000
49.48000 1209.000
49.52000 1191.000
49.56000 1204.000
49.60000 1157.000
49.64000 1236.000
49.68000 1285.000
49.72000 1270.000
49.76000 1260.000
49.80000 1231.000
49.84000 1254.000
49.88000 1244.000
49.92000 1299.000
49.96000 1354.000
50.00000 1419.000
50.04000 1594.000
50.08000 1733.000
50.12000 1875.000
50.16000 2145.000
50.20000 2219.000
50.24000 2061.000
50.28000 1934.000
50.32000 1884.000
50.36000 1795.000
50.40000 1577.000
50.44000 1445.000
50.48000 1364.000
50.52000 1306.000
50.56000 1296.000
50.60000 1271.000
50.64000 1242.000
50.68000 1238.000
50.72000 1213.000
50.76000 1226.000
50.80000 1169.000
50.84000 1262.000
50.88000 1174.000
50.92000 1178.000
50.96000 1224.000
51.00000 1203.000
51.04000 1220.000
51.08000 1254.000
51.12000 1240.000
51.16000 1218.000
51.20000 1202.000
51.24000 1254.000
51.28000 1174.000
51.32000 1166.000
51.36000 1224.000
51.40000 1232.000
51.44000 1147.000
51.48000 1188.000
51.52000 1237.000
51.56000 1219.000
51.60000 1271.000
51.64000 1147.000
51.68000 1206.000
51.72000 1175.000
51.76000 1222.000
51.80000 1239.000
51.84000 1319.000
51.88000 1283.000
51.92000 1261.000
51.96000 1373.000
52.00000 1365.000
52.04000 1287.000
52.08000 1286.000
52.12000 1325.000
52.16000 1365.000
52.20000 1324.000
52.24000 1362.000
52.28000 1363.000
52.32000 1331.000
52.36000 1354.000
52.40000 1461.000
52.44000 1396.000
52.48000 1472.000
52.52000 1545.000
52.56000 1489.000
52.60000 1501.000
52.64000 1425.000
52.68000 1366.000
52.72000 1346.000
52.76000 1299.000
52.80000 1273.000
52.84000 1232.000
52.88000 1221.000
52.92000 1234.000
52.96000 1201.000
53.00000 1199.000
53.04000 1159.000
53.08000 1176.000
53.12000 1204.000
53.16000 1190.000
53.20000 1206.000
53.24000 1184.000
53.28000 1221.000
53.32000 1192.000
53.36000 1186.000
53.40000 1149.000
53.44000 1177.000
53.48000 1198.000
53.52000 1189.000
53.56000 1148.000
53.60000 1211.000
53.64000 1240.000
53.68000 1174.000
53.72000 1224.000
53.76000 1157.000
53.80000 1196.000
53.84000 1179.000
53.88000 1116.000
53.92000 1219.000
53.96000 1164.000
54.00000 1172.000
54.04000 1154.000
54.08000 1178.000
54.12000 1180.000
54.16000 1137.000
54.20000 1274.000
54.24000 1161.000
54.28000 1263.000
54.32000 1187.000
54.36000 1272.000
54.40000 1309.000
54.44000 1282.000
54.48000 1324.000
54.52000 1370.000
54.56000 1359.000
54.60000 1353.000
54.64000 1309.000
54.68000 1292.000
54.72000 1303.000
54.76000 1294.000
54.80000 1251.000
54.84000 1263.000
54.88000 1196.000
54.92000 1183.000
54.96000 1186.000
55.00000 1219.000
55.04000 1263.000
55.08000 1186.000
55.12000 1202.000
55.16000 1133.000
55.20000 1160.000
55.24000 1181.000
55.28000 1205.000
55.32000 1180.000
55.36000 1189.000
55.40000 1150.000
55.44000 1169.000
55.48000 1108.000
55.52000 1239.000
55.56000 1176.000
55.60000 1164.000
55.64000 1165.000
55.68000 1180.000
55.72000 1211.000
55.76000 1207.000
55.80000 1175.000
55.84000 1180.000
55.88000 1144.000
55.92000 1170.000
55.96000 1217.000
56.00000 1193.000
56.04000 1193.000
56.08000 1263.000
56.12000 1233.000
56.16000 1206.000
56.20000 1240.000
56.24000 1185.000
56.28000 1222.000
56.32000 1250.000
56.36000 1253.000
56.40000 1250.000
56.44000 1268.000
56.48000 1188.000
56.52000 1199.000
56.56000 1175.000
56.60000 1189.000
56.64000 1147.000
56.68000 1199.000
56.72000 1211.000
56.76000 1186.000
56.80000 1216.000
56.84000 1166.000
56.88000 1205.000
56.92000 1203.000
56.96000 1149.000
57.00000 1188.000
57.04000 1178.000
57.08000 1188.000
57.12000 1194.000
57.16000 1250.000
57.20000 1168.000
57.24000 1207.000
57.28000 1181.000
57.32000 1224.000
57.36000 1150.000
57.40000 1249.000
57.44000 1143.000
57.48000 1177.000
57.52000 1186.000
57.56000 1150.000
57.60000 1200.000
57.64000 1184.000
57.68000 1145.000
57.72000 1214.000
57.76000 1165.000
57.80000 1162.000
57.84000 1239.000
57.88000 1233.000
57.92000 1200.000
57.96000 1221.000
58.00000 1263.000
58.04000 1190.000
58.08000 1210.000
58.12000 1211.000
58.16000 1199.000
58.20000 1265.000
58.24000 1271.000
58.28000 1286.000
58.32000 1287.000
58.36000 1253.000
58.40000 1267.000
58.44000 1243.000
58.48000 1279.000
58.52000 1275.000
58.56000 1290.000
58.60000 1376.000
58.64000 1346.000
58.68000 1445.000
58.72000 1490.000
58.76000 1497.000
58.80000 1694.000
58.84000 1679.000
58.88000 1678.000
58.92000 1580.000
58.96000 1477.000
59.00000 1490.000
59.04000 1398.000
59.08000 1289.000
59.12000 1309.000
59.16000 1215.000
59.20000 1201.000
59.24000 1177.000
59.28000 1264.000
59.32000 1218.000
59.36000 1177.000
59.40000 1145.000
59.44000 1181.000
59.48000 1231.000
59.52000 1187.000
59.56000 1303.000
59.60000 1215.000
59.64000 1208.000
59.68000 1201.000
59.72000 1212.000
59.76000 1141.000
59.80000 1169.000
59.84000 1273.000
59.88000 1211.000
59.92000 1262.000
59.96000 1182.000
60.00000 1199.000
60.04000 1258.000
60.08000 1256.000
60.12000 1240.000
60.16000 1260.000
60.20000 1218.000
60.24000 1283.000
60.28000 1256.000
60.32000 1270.000
60.36000 1205.000
60.40000 1307.000
60.44000 1277.000
60.48000 1419.000
60.52000 1376.000
60.56000 1455.000
60.60000 1517.000
60.64000 1581.000
60.68000 1680.000
60.72000 1844.000
60.76000 1937.000
60.80000 2002.000
60.84000 1938.000
60.88000 1917.000
60.92000 1832.000
60.96000 1733.000
61.00000 1593.000
61.04000 1546.000
61.08000 1355.000
61.12000 1346.000
61.16000 1310.000
61.20000 1293.000
61.24000 1280.000
61.28000 1194.000
61.32000 1291.000
61.36000 1188.000
61.40000 1229.000
61.44000 1245.000
61.48000 1226.000
61.52000 1255.000
61.56000 1283.000
61.60000 1187.000
61.64000 1219.000
61.68000 1173.000
61.72000 1195.000
61.76000 1183.000
61.80000 1205.000
61.84000 1180.000
61.88000 1270.000
61.92000 1183.000
61.96000 1190.000
62.00000 1184.000
62.04000 1166.000
62.08000 1197.000
62.12000 1194.000
62.16000 1153.000
62.20000 1222.000
62.24000 1164.000
62.28000 1227.000
62.32000 1264.000
62.36000 1260.000
62.40000 1194.000
62.44000 1196.000
62.48000 1203.000
62.52000 1223.000
62.56000 1273.000
62.60000 1318.000
62.64000 1408.000
62.68000 1381.000
62.72000 1451.000
62.76000 1568.000
62.80000 1484.000
62.84000 1409.000
62.88000 1377.000
62.92000 1400.000
62.96000 1367.000
63.00000 1315.000
63.04000 1188.000
63.08000 1295.000
63.12000 1247.000
63.16000 1129.000
63.20000 1160.000
63.24000 1143.000
63.28000 1178.000
63.32000 1159.000
63.36000 1183.000
63.40000 1139.000
63.44000 1120.000
63.48000 1152.000
63.52000 1185.000
63.56000 1202.000
63.60000 1193.000
63.64000 1169.000
63.68000 1205.000
63.72000 1160.000
63.76000 1167.000
63.80000 1241.000
63.84000 1150.000
63.88000 1135.000
63.92000 1176.000
63.96000 1212.000
64.00000 1109.000
64.04000 1141.000
64.08000 1110.000
64.12000 1186.000
64.16000 1239.000
64.20000 1252.000
64.24000 1287.000
64.28000 1192.000
64.32000 1242.000
64.36000 1224.000
64.40000 1183.000
64.44000 1213.000
64.48000 1191.000
64.52000 1167.000
64.56000 1131.000
64.60000 1185.000
64.64000 1187.000
64.68000 1225.000
64.72000 1183.000
64.76000 1130.000
64.80000 1163.000
64.84000 1153.000
64.88000 1141.000
64.92000 1204.000
64.96000 1171.000
65.00000 1152.000
65.04000 1114.000
65.08000 1130.000
65.12000 1069.000
65.16000 1190.000
65.20000 1188.000
65.24000 1189.000
65.28000 1091.000
65.32000 1147.000
65.36000 1128.000
65.40000 1117.000
65.44000 1121.000
65.48000 1132.000
65.52000 1126.000
65.56000 1087.000
65.60000 1134.000
65.64000 1120.000
65.68000 1142.000
65.72000 1137.000
65.76000 1114.000
65.80000 1098.000
65.84000 1148.000
65.88000 1089.000
65.92000 1171.000
65.96000 1126.000
66.00000 1177.000
66.04000 1192.000
66.08000 1167.000
66.12000 1203.000
66.16000 1188.000
66.20000 1202.000
66.24000 1096.000
66.28000 1240.000
66.32000 1176.000
66.36000 1322.000
66.40000 1212.000
66.44000 1299.000
66.48000 1363.000
66.52000 1361.000
66.56000 1389.000
66.60000 1436.000
66.64000 1390.000
66.68000 1390.000
66.72000 1350.000
66.76000 1277.000
66.80000 1300.000
66.84000 1165.000
66.88000 1178.000
66.92000 1171.000
66.96000 1214.000
67.00000 1136.000
67.04000 1165.000
67.08000 1140.000
67.12000 1149.000
67.16000 1040.000
67.20000 1117.000
67.24000 1117.000
67.28000 1119.000
67.32000 1140.000
67.36000 1089.000
67.40000 1097.000
67.44000 1151.000
67.48000 1100.000
67.52000 1107.000
67.56000 1076.000
67.60000 1071.000
67.64000 1109.000
67.68000 1084.000
67.72000 1083.000
67.76000 1067.000
67.80000 1120.000
67.84000 1169.000
67.88000 1137.000
67.92000 1137.000
67.96000 1143.000
68.00000 1183.000
68.04000 1221.000
68.08000 1155.000
68.12000 1135.000
68.16000 1239.000
68.20000 1199.000
68.24000 1232.000
68.28000 1293.000
68.32000 1373.000
68.36000 1340.000
68.40000 1358.000
68.44000 1357.000
68.48000 1354.000
68.52000 1322.000
68.56000 1271.000
68.60000 1269.000
68.64000 1187.000
68.68000 1091.000
68.72000 1100.000
68.76000 1100.000
68.80000 1136.000
68.84000 1051.000
68.88000 1086.000
68.92000 1003.000
68.96000 1021.000
69.00000 1015.000
69.04000 1035.000
69.08000 1064.000
69.12000 1081.000
69.16000 977.000
69.20000 1007.000
69.24000 1005.000
69.28000 1060.000
69.32000 1027.000
69.36000 1071.000
69.40000 1040.000
69.44000 1058.000
69.48000 1024.000
69.52000 1011.000
69.56000 1001.000
69.60000 1052.000
69.64000 1066.000
69.68000 1061.000
69.72000 1053.000
69.76000 1022.000
69.80000 1050.000
69.84000 1050.000
69.88000 971.000
69.92000 1023.000
69.96000 1027.000
70.00000 1027.000
