10 95
10.0496 107
10.0992 94
10.1489 93
10.1985 92
10.2481 107
10.2977 99
10.3473 88
 10.397 88
10.4466 68
10.4962 81
10.5458 81
10.5954 84
10.6451 56
10.6947 83
10.7443 66
10.7939 78
10.8435 66
10.8932 64
10.9428 64
10.9924 73
 11.042 72
11.0916 64
11.1413 85
11.1909 72
11.2405 63
11.2901 61
11.3397 59
11.3894 61
 11.439 75
11.4886 68
11.5382 60
11.5878 71
11.6375 60
11.6871 55
11.7367 46
11.7863 52
11.8359 46
11.8856 48
11.9352 51
11.9848 73
12.0344 55
 12.084 51
12.1337 59
12.1833 49
12.2329 60
12.2825 53
12.3321 49
12.3818 54
12.4314 56
 12.481 45
12.5306 58
12.5802 51
12.6299 50
12.6795 47
12.7291 56
12.7787 48
12.8283 32
 12.878 48
12.9276 50
12.9772 32
13.0268 40
13.0764 40
13.1261 49
13.1757 41
13.2253 45
13.2749 49
13.3245 44
13.3742 37
13.4238 57
13.4734 47
 13.523 41
13.5726 39
13.6223 40
13.6719 39
13.7215 47
13.7711 56
13.8207 60
13.8704 81
 13.92 101
13.9696 200
14.0192 434
14.06881993
14.11854847
14.16811702
14.2177 244
14.2673 96
14.3169 67
14.3666 71
14.4162 48
14.4658 39
14.5154 50
 14.565 45
14.6147 39
14.6643 39
14.7139 55
14.7635 31
14.8131 37
14.8628 38
14.9124 33
 14.962 43
15.0116 30
15.0613 27
15.1109 26
15.1605 34
15.2101 28
15.2597 28
15.3094 39
 15.359 34
15.4086 29
15.4582 22
15.5078 27
15.5575 22
15.6071 31
15.6567 20
15.7063 21
15.7559 29
15.8056 30
15.8552 23
15.9048 25
15.9544 27
 16.004 21
16.0537 25
16.1033 33
16.1529 23
16.2025 26
16.2521 24
16.3018 23
16.3514 25
 16.401 20
16.4506 28
16.5002 24
16.5499 26
16.5995 16
16.6491 24
16.6987 28
16.7483 19
 16.798 24
16.8476 19
16.8972 21
16.9468 26
16.9964 27
17.0461 19
17.0957 21
17.1453 24
17.1949 26
17.2445 26
17.2942 18
17.3438 26
17.3934 25
 17.443 25
17.4926 29
17.5423 25
17.5919 21
17.6415 16
17.6911 22
17.7407 26
17.7904 20
 17.84 22
17.8896 20
17.9392 23
17.9888 23
18.0385 18
18.0881 26
18.1377 23
18.1873 27
18.2369 22
18.2866 17
18.3362 24
18.3858 10
18.4354 20
 18.485 22
18.5347 17
18.5843 13
18.6339 17
18.6835 16
18.7331 26
18.7828 18
18.8324 23
 18.882 22
18.9316 30
18.9812 20
19.0309 23
19.0805 20
19.1301 19
19.1797 20
19.2293 21
 19.279 25
19.3286 26
19.3782 18
19.4278 20
19.4774 19
19.5271 19
19.5767 20
19.6263 21
19.6759 24
19.7255 17
19.7752 22
19.8248 22
19.8744 27
 19.924 29
19.9736 19
20.0233 28
20.0729 23
20.1225 29
20.1721 16
20.2217 19
20.2714 24
 20.321 22
20.3706 14
20.4202 28
20.4698 28
20.5195 20
20.5691 26
20.6187 24
20.6683 32
20.7179 28
20.7676 25
20.8172 22
20.8668 25
20.9164 27
 20.966 22
21.0157 21
21.0653 18
21.1149 27
21.1645 27
21.2141 22
21.2638 21
21.3134 18
 21.363 17
21.4126 20
21.4622 22
21.5119 23
21.5615 30
21.6111 24
21.6607 19
21.7103 24
 21.76 25
21.8096 30
21.8592 21
21.9088 27
21.9584 25
22.0081 24
22.0577 28
22.1073 17
22.1569 23
22.2065 35
22.2562 27
22.3058 20
22.3554 23
 22.405 17
22.4546 20
22.5043 34
22.5539 19
22.6035 20
22.6531 22
22.7027 16
22.7524 25
 22.802 27
22.8516 27
22.9012 27
22.9508 12
23.0005 21
23.0501 24
23.0997 17
23.1493 22
23.1989 30
23.2486 26
23.2982 26
23.3478 19
23.3974 28
 23.447 27
23.4967 28
23.5463 16
23.5959 26
23.6455 19
23.6951 27
23.7448 14
23.7944 16
 23.844 30
23.8936 19
23.9432 20
23.9929 21
24.0425 27
24.0921 25
24.1417 24
24.1913 22
 24.241 14
24.2906 18
24.3402 19
24.3898 22
24.4394 25
24.4891 26
24.5387 44
24.5883 48
24.6379 23
24.6875 32
24.7372 22
24.7868 23
24.8364 27
 24.886 27
24.9357 27
24.9853 27
25.0349 17
25.0845 33
25.1341 18
25.1838 24
25.2334 23
 25.283 28
25.3326 20
25.3822 16
25.4319 26
25.4815 26
25.5311 15
25.5807 27
25.6303 33
 25.68 27
25.7296 33
25.7792 19
25.8288 16
25.8784 16
25.9281 28
25.9777 29
26.0273 21
26.0769 27
26.1265 27
26.1762 25
26.2258 38
26.2754 32
 26.325 43
26.3746 67
26.4243 97
26.4739 135
26.5235 89
26.5731 60
26.6227 52
26.6724 41
 26.722 30
26.7716 28
26.8212 26
26.8708 24
26.9205 27
26.9701 15
27.0197 19
27.0693 29
27.1189 21
27.1686 19
27.2182 21
27.2678 23
27.3174 23
 27.367 16
27.4167 27
27.4663 25
27.5159 24
27.5655 21
27.6151 22
27.6648 20
27.7144 18
 27.764 33
27.8136 28
27.8632 26
27.9129 21
27.9625 31
28.0121 29
28.0617 22
28.1113 33
 28.161 42
28.2106 45
28.2602 73
28.3098 104
28.3594 265
28.40911305
28.45872251
28.5083 665
28.5579 128
28.6075 59
28.6572 43
28.7068 31
28.7564 31
 28.806 24
28.8556 25
28.9053 13
28.9549 25
29.0045 19
29.0541 26
29.1037 18
29.1534 22
 29.203 24
29.2526 19
29.3022 19
29.3518 21
29.4015 20
29.4511 20
29.5007 22
29.5503 22
29.5999 31
29.6496 25
29.6992 23
29.7488 25
29.7984 20
 29.848 20
29.8977 22
29.9473 18
29.9969 18
30.0465 15
30.0961 20
30.1458 21
30.1954 16
 30.245 14
30.2946 21
30.3442 15
30.3939 20
30.4435 14
30.4931 27
30.5427 18
30.5923 20
 30.642 22
30.6916 15
30.7412 27
30.7908 15
30.8404 19
30.8901 13
30.9397 19
30.9893 17
31.0389 14
31.0885 20
31.1382 25
31.1878 18
31.2374 21
 31.287 13
31.3366 18
31.3863 25
31.4359 21
31.4855 22
31.5351 24
31.5847 20
31.6344 15
 31.684 18
31.7336 14
31.7832 20
31.8328 33
31.8825 62
31.9321 29
31.9817 22
32.0313 14
32.0809 16
32.1306 13
32.1802 12
32.2298 10
32.2794 14
 32.329 19
32.3787 22
32.4283 9
32.4779 21
32.5275 15
32.5771 15
32.6268 13
32.6764 13
 32.726 13
32.7756 7
32.8252 12
32.8749 17
32.9245 16
32.9741 11
33.0237 16
33.0733 20
 33.123 18
33.1726 15
33.2222 23
33.2718 16
33.3214 15
33.3711 14
33.4207 25
33.4703 30
33.5199 27
33.5695 40
33.6192 72
33.6688 91
33.7184 65
 33.768 38
33.8176 29
33.8673 28
33.9169 19
33.9665 20
34.0161 14
34.0657 13
34.1154 16
 34.165 18
34.2146 13
34.2642 11
34.3138 18
34.3635 13
34.4131 15
34.4627 20
34.5123 11
34.5619 12
34.6116 12
34.6612 20
34.7108 11
34.7604 22
 34.81 18
34.8597 19
34.9093 11
34.9589 12
35.0085 22
35.0582 13
35.1078 14
35.1574 13
 35.207 13
35.2566 14
35.3063 13
35.3559 14
35.4055 9
35.4551 9
35.5047 14
35.5544 9
 35.604 15
35.6536 14
35.7032 17
35.7528 13
35.8025 14
35.8521 15
35.9017 10
35.9513 15
36.0009 15
36.0506 13
36.1002 17
36.1498 12
36.1994 16
 36.249 11
36.2987 5
36.3483 10
36.3979 9
36.4475 11
36.4971 12
36.5468 10
36.5964 8
 36.646 7
36.6956 15
36.7452 7
36.7949 16
36.8445 15
36.8941 16
36.9437 7
36.9933 2
 37.043 15
37.0926 12
37.1422 17
37.1918 20
37.2414 13
37.2911 11
37.3407 21
37.3903 16
37.4399 17
37.4895 30
37.5392 36
37.5888 60
37.6384 73
 37.688 93
37.7376 80
37.7873 44
37.8369 39
37.8865 26
37.9361 23
37.9857 12
38.0354 18
 38.085 9
38.1346 13
38.1842 11
38.2338 14
38.2835 9
38.3331 12
38.3827 9
38.4323 10
38.4819 18
38.5316 7
38.5812 11
38.6308 15
38.6804 10
 38.73 10
38.7797 11
38.8293 12
38.8789 15
38.9285 10
38.9781 6
39.0278 15
39.0774 21
 39.127 10
39.1766 8
39.2262 7
39.2759 11
39.3255 10
39.3751 10
39.4247 10
39.4743 16
 39.524 11
39.5736 15
39.6232 9
39.6728 10
39.7224 3
39.7721 16
39.8217 11
39.8713 8
39.9209 9
39.9705 8
40.0202 12
40.0698 9
40.1194 14
 40.169 7
40.2186 8
40.2683 6
40.3179 9
40.3675 14
40.4171 15
40.4667 11
40.5164 10
 40.566 9
40.6156 13
40.6652 24
40.7148 29
40.7645 9
40.8141 11
40.8637 7
40.9133 8
40.9629 11
41.0126 11
41.0622 15
41.1118 12
41.1614 10
 41.211 9
41.2607 6
41.3103 6
41.3599 16
41.4095 13
41.4591 5
41.5088 7
41.5584 9
 41.608 10
41.6576 15
41.7072 11
41.7569 12
41.8065 11
41.8561 16
41.9057 6
41.9553 14
 42.005 9
42.0546 11
42.1042 9
42.1538 7
42.2034 13
42.2531 12
42.3027 21
42.3523 13
42.4019 9
42.4515 13
42.5012 16
42.5508 4
42.6004 11
 42.65 19
42.6996 10
42.7493 7
42.7989 19
42.8485 15
42.8981 8
42.9477 12
42.9974 12
 43.047 8
43.0966 17
43.1462 25
43.1958 30
43.2455 90
43.2951 71
43.3447 13
43.3943 18
43.4439 13
43.4936 12
43.5432 13
43.5928 17
43.6424 5
 43.692 14
43.7417 10
43.7913 8
43.8409 12
43.8905 11
43.9401 11
43.9898 8
44.0394 9
 44.089 7
44.1386 10
44.1882 10
44.2379 5
44.2875 6
44.3371 7
44.3867 10
44.4363 12
 44.486 10
44.5356 8
44.5852 11
44.6348 12
44.6844 11
44.7341 11
44.7837 12
44.8333 5
44.8829 12
44.9326 7
44.9822 8
45.0318 13
45.0814 8
 45.131 12
45.1807 10
45.2303 5
45.2799 11
45.3295 12
45.3791 9
45.4288 8
45.4784 13
 45.528 4
45.5776 7
45.6272 9
45.6769 11
45.7265 13
45.7761 15
45.8257 6
45.8753 9
 45.925 10
45.9746 9
46.0242 7
46.0738 8
46.1234 11
46.1731 11
46.2227 4
46.2723 11
46.3219 11
46.3715 9
46.4212 4
46.4708 3
46.5204 9
 46.57 4
46.6196 13
46.6693 5
46.7189 15
46.7685 13
46.8181 17
46.8677 10
46.9174 8
 46.967 11
47.0166 9
47.0662 8
47.1158 13
47.1655 15
47.2151 5
47.2647 6
47.3143 7
47.3639 6
47.4136 7
47.4632 11
47.5128 14
47.5624 14
 47.612 6
47.6617 11
47.7113 4
47.7609 8
47.8105 1
47.8601 8
47.9098 8
47.9594 4
 48.009 6
48.0586 14
48.1082 10
48.1579 2
48.2075 8
48.2571 8
48.3067 10
48.3563 8
 48.406 8
48.4556 3
48.5052 6
48.5548 10
48.6044 7
48.6541 8
48.7037 3
48.7533 13
48.8029 6
48.8525 11
48.9022 6
48.9518 5
49.0014 10
 49.051 13
49.1006 10
49.1503 10
49.1999 6
49.2495 13
49.2991 6
49.3487 4
49.3984 8
 49.448 6
49.4976 7
49.5472 9
49.5968 7
49.6465 8
49.6961 15
49.7457 9
49.7953 10
49.8449 15
49.8946 12
49.9442 10
49.9938 9
50.0434 14
 50.093 8
50.1427 9
50.1923 6
50.2419 10
50.2915 16
50.3411 13
50.3908 14
50.4404 9
 50.49 13
50.5396 13
50.5892 13
50.6389 9
50.6885 11
50.7381 11
50.7877 6
50.8373 6
 50.887 15
50.9366 4
50.9862 12
51.0358 10
51.0854 12
51.1351 11
51.1847 11
51.2343 19
51.2839 29
51.3335 41
51.3832 84
51.4328 137
51.4824 148
 51.532 94
51.5816 39
51.6313 40
51.6809 17
51.7305 27
51.7801 21
51.8297 15
51.8794 11
 51.929 12
51.9786 7
52.0282 14
52.0778 6
52.1275 9
52.1771 4
52.2267 16
52.2763 9
52.3259 11
52.3756 11
52.4252 7
52.4748 10
52.5244 11
 52.574 9
52.6237 11
52.6733 14
52.7229 9
52.7725 20
52.8221 9
52.8718 11
52.9214 11
 52.971 5
53.0206 8
53.0702 7
53.1199 10
53.1695 9
53.2191 4
53.2687 16
53.3183 9
 53.368 8
53.4176 3
53.4672 7
53.5168 8
53.5664 14
53.6161 13
53.6657 8
53.7153 14
53.7649 12
53.8145 5
53.8642 14
53.9138 9
53.9634 8
 54.013 9
54.0626 8
54.1123 10
54.1619 15
54.2115 12
54.2611 18
54.3107 13
54.3604 14
 54.41 16
54.4596 20
54.5092 13
54.5588 16
54.6085 14
54.6581 12
54.7077 15
54.7573 10
 54.807 15
54.8566 6
54.9062 9
54.9558 7
55.0054 9
55.0551 9
55.1047 10
55.1543 10
55.2039 11
55.2535 10
55.3032 7
55.3528 5
55.4024 8
 55.452 4
55.5016 9
55.5513 12
55.6009 9
55.6505 10
55.7001 16
55.7497 9
55.7994 6
 55.849 7
55.8986 8
55.9482 12
55.9978 9
56.0475 10
56.0971 11
56.1467 1
56.1963 5
56.2459 13
56.2956 12
56.3452 9
56.3948 6
56.4444 7
 56.494 8
56.5437 13
56.5933 8
56.6429 12
56.6925 9
56.7421 12
56.7918 7
56.8414 10
 56.891 8
56.9406 13
56.9902 6
57.0399 10
57.0895 8
57.1391 8
57.1887 12
57.2383 10
 57.288 8
57.3376 10
57.3872 9
57.4368 7
57.4864 10
57.5361 11
57.5857 12
57.6353 9
57.6849 13
57.7345 11
57.7842 8
57.8338 13
57.8834 7
 57.933 10
57.9826 16
58.0323 6
58.0819 16
58.1315 9
58.1811 7
58.2307 11
58.2804 10
 58.33 7
58.3796 9
58.4292 8
58.4788 8
58.5285 7
58.5781 12
58.6277 14
58.6773 14
58.7269 15
58.7766 23
58.8262 54
58.8758 53
58.9254 42
 58.975 14
59.0247 8
59.0743 14
59.1239 13
59.1735 9
59.2231 6
59.2728 5
59.3224 6
 59.372 11
59.4216 13
59.4712 15
59.5209 10
59.5705 9
59.6201 8
59.6697 14
59.7193 9
 59.769 10
59.8186 5
59.8682 11
59.9178 6
59.9674 19
60.0171 11
60.0667 8
60.1163 7
60.1659 4
60.2155 10
60.2652 11
60.3148 11
60.3644 10
 60.414 9
60.4636 9
60.5133 10
60.5629 14
60.6125 11
60.6621 8
60.7117 10
60.7614 16
 60.811 8
60.8606 18
60.9102 12
60.9598 16
61.0095 9
61.0591 5
61.1087 14
61.1583 10
61.2079 12
61.2576 16
61.3072 6
61.3568 15
61.4064 32
 61.456 32
61.5057 23
61.5553 20
61.6049 23
61.6545 10
61.7041 14
61.7538 12
61.8034 3
 61.853 18
61.9026 14
61.9522 9
62.0019 11
62.0515 8
62.1011 17
62.1507 10
62.2003 6
 62.25 13
62.2996 14
62.3492 10
62.3988 10
62.4484 8
62.4981 11
62.5477 9
62.5973 4
62.6469 13
62.6965 7
62.7462 13
62.7958 13
62.8454 10
 62.895 14
62.9446 15
62.9943 13
63.0439 15
63.0935 14
63.1431 7
63.1927 12
63.2424 11
 63.292 9
63.3416 5
63.3912 7
63.4408 13
63.4905 8
63.5401 15
63.5897 7
63.6393 11
63.6889 15
63.7386 6
63.7882 17
63.8378 10
63.8874 9
 63.937 8
63.9867 14
64.0363 9
64.0859 12
64.1355 14
64.1851 12
64.2348 9
64.2844 17
 64.334 12
64.3836 6
64.4332 11
64.4829 9
64.5325 11
64.5821 11
64.6317 13
64.6814 8
 64.731 8
64.7806 9
64.8302 9
64.8798 13
64.9295 10
64.9791 8
65.0287 8
65.0783 14
65.1279 14
65.1776 11
65.2272 13
65.2768 22
65.3264 32
 65.376 63
65.4257 63
65.4753 56
65.5249 40
65.5745 32
65.6241 34
65.6738 20
65.7234 25
 65.773 10
65.8226 20
65.8722 16
65.9219 14
65.9715 14
66.0211 13
66.0707 14
66.1203 8
 66.17 9
66.2196 10
66.2692 8
66.3188 9
66.3684 9
66.4181 8
66.4677 13
66.5173 10
66.5669 13
66.6165 19
66.6662 10
66.7158 17
66.7654 7
 66.815 6
66.8646 9
66.9143 5
66.9639 4
67.0135 8
67.0631 9
67.1127 9
67.1624 10
 67.212 7
67.2616 7
67.3112 8
67.3608 9
67.4105 13
67.4601 15
67.5097 11
67.5593 8
67.6089 7
67.6586 7
67.7082 1
67.7578 10
67.8074 8
 67.857 6
67.9067 18
67.9563 14
68.0059 8
68.0555 8
68.1051 9
68.1548 9
68.2044 8
 68.254 7
68.3036 9
68.3532 11
68.4029 9
68.4525 10
68.5021 11
68.5517 7
68.6013 9
 68.651 12
68.7006 14
68.7502 15
68.7998 7
68.8494 15
68.8991 7
68.9487 12
68.9983 13
69.0479 9
69.0975 6
69.1472 7
69.1968 8
69.2464 11
 69.296 9
69.3456 7
69.3953 10
69.4449 11
69.4945 7
69.5441 8
69.5937 11
69.6434 12
 69.693 9
69.7426 12
69.7922 9
69.8418 11
69.8915 9
69.9411 7
69.9907 13
70.0403 11
70.0899 13
70.1396 9
70.1892 8
70.2388 10
70.2884 5
 70.338 4
70.3877 19
70.4373 5
70.4869 12
70.5365 7
70.5861 7
70.6358 15
70.6854 6
 70.735 13
70.7846 8
70.8342 11
70.8839 4
70.9335 8
70.9831 14
71.0327 7
71.0823 13
 71.132 10
71.1816 8
71.2312 12
71.2808 8
71.3304 10
71.3801 8
71.4297 8
71.4793 9
71.5289 5
71.5785 5
71.6282 9
71.6778 8
71.7274 9
 71.777 7
71.8266 4
71.8763 6
71.9259 7
71.9755 7
72.0251 6
72.0747 8
72.1244 7
 72.174 10
72.2236 5
72.2732 10
72.3228 14
72.3725 1
72.4221 2
72.4717 5
72.5213 9
72.5709 7
72.6206 7
72.6702 9
72.7198 5
72.7694 9
 72.819 2
72.8687 7
72.9183 10
72.9679 9
73.0175 5
73.0671 6
73.1168 11
73.1664 8
 73.216 10
73.2656 5
73.3152 11
73.3649 4
73.4145 10
73.4641 6
73.5137 5
73.5633 10
 73.613 7
73.6626 6
73.7122 7
73.7618 7
73.8114 7
73.8611 13
73.9107 10
73.9603 9
74.0099 7
74.0595 12
74.1092 5
74.1588 4
74.2084 5
 74.258 12
74.3076 8
74.3573 14
74.4069 9
74.4565 10
74.5061 8
74.5558 7
74.6054 6
 74.655 6
74.7046 8
74.7542 10
74.8039 10
74.8535 5
74.9031 3
74.9527 15
75.0023 6
 75.052 9
75.1016 5
75.1512 10
75.2008 8
75.2504 7
75.3001 14
75.3497 13
75.3993 4
75.4489 11
75.4985 8
75.5482 7
75.5978 4
75.6474 4
 75.697 11
75.7466 6
75.7963 12
75.8459 9
75.8955 5
75.9451 12
75.9947 11
76.0444 7
 76.094 5
76.1436 8
76.1932 4
76.2428 8
76.2925 9
76.3421 5
76.3917 6
76.4413 11
76.4909 10
76.5406 5
76.5902 8
76.6398 4
76.6894 8
 76.739 3
76.7887 12
76.8383 6
76.8879 7
76.9375 11
76.9871 11
77.0368 6
77.0864 14
 77.136 8
77.1856 11
77.2352 8
77.2849 7
77.3345 5
77.3841 11
77.4337 10
77.4833 8
 77.533 5
77.5826 5
77.6322 15
77.6818 8
77.7314 10
77.7811 13
77.8307 5
77.8803 13
77.9299 5
77.9795 5
78.0292 15
78.0788 14
78.1284 13
 78.178 16
78.2276 20
78.2773 16
78.3269 12
78.3765 12
78.4261 18
78.4757 16
78.5254 13
 78.575 12
78.6246 8
78.6742 8
78.7238 6
78.7735 7
78.8231 8
78.8727 7
78.9223 5
78.9719 7
79.0216 8
79.0712 11
79.1208 5
79.1704 5
 79.22 10
79.2697 6
79.3193 10
79.3689 8
79.4185 6
79.4681 12
79.5178 5
79.5674 6
 79.617 10
79.6666 1
79.7162 6
79.7659 4
79.8155 3
79.8651 8
79.9147 8
79.9643 4
 80.014 4
