10 115
10.0496  96
10.0992 105
10.1489  83
10.1985  94
10.2481  86
10.2977  80
10.3473 108
 10.397  92
10.4466  98
10.4962  97
10.5458  92
10.5954  82
10.6451  76
10.6947  75
10.7443  89
10.7939  68
10.8435  85
10.8932  72
10.9428  89
10.9924  86
 11.042  64
11.0916  70
11.1413  63
11.1909  75
11.2405  66
11.2901  62
11.3397  56
11.3894  83
 11.439  52
11.4886  78
11.5382  61
11.5878  60
11.6375  66
11.6871  66
11.7367  67
11.7863  67
11.8359  57
11.8856  59
11.9352  57
11.9848  67
12.0344  63
 12.084  61
12.1337  66
12.1833  54
12.2329  66
12.2825  50
12.3321  55
12.3818  67
12.4314  56
 12.481  46
12.5306  40
12.5802  48
12.6299  46
12.6795  55
12.7291  56
12.7787  49
12.8283  52
 12.878  53
12.9276  40
12.9772  37
13.0268  40
13.0764  48
13.1261  50
13.1757  50
13.2253  36
13.2749  44
13.3245  36
13.3742  48
13.4238  49
13.4734  52
 13.523  55
13.5726  39
13.6223  43
13.6719  37
13.7215  65
13.7711  48
13.8207  60
13.8704  78
  13.92  94
13.9696 124
14.0192 236
14.0688 577
14.11852709
14.16817688
14.21772371
14.2673 285
14.3169 163
14.3666  85
14.4162  88
14.4658  72
14.5154  54
 14.565  69
14.6147  68
14.6643  76
14.7139  49
14.7635  35
14.8131  50
14.8628  35
14.9124  34
 14.962  30
15.0116  19
15.0613  35
15.1109  36
15.1605  30
15.2101  28
15.2597  38
15.3094  31
 15.359  28
15.4086  28
15.4582  27
15.5078  14
15.5575  26
15.6071  27
15.6567  19
15.7063  18
15.7559  28
15.8056  26
15.8552  30
15.9048  21
15.9544  31
 16.004  30
16.0537  33
16.1033  16
16.1529  28
16.2025  25
16.2521  35
16.3018  17
16.3514  25
 16.401  21
16.4506  27
16.5002  22
16.5499  31
16.5995  29
16.6491  17
16.6987  32
16.7483  27
 16.798  23
16.8476  19
16.8972  28
16.9468  34
16.9964  21
17.0461  22
17.0957  23
17.1453  24
17.1949  17
17.2445  19
17.2942  33
17.3438  23
17.3934  21
 17.443  31
17.4926  23
17.5423  21
17.5919  21
17.6415  26
17.6911  27
17.7407  30
17.7904  23
  17.84  16
17.8896  21
17.9392  23
17.9888  36
18.0385  30
18.0881  19
18.1377  18
18.1873  16
18.2369  26
18.2866  19
18.3362  22
18.3858  19
18.4354  23
 18.485  19
18.5347  20
18.5843  20
18.6339  24
18.6835  19
18.7331  14
18.7828  14
18.8324  26
 18.882  19
18.9316  29
18.9812  22
19.0309  25
19.0805  16
19.1301  18
19.1797  19
19.2293  30
 19.279  29
19.3286  25
19.3782  24
19.4278  13
19.4774  20
19.5271  21
19.5767  26
19.6263  27
19.6759  28
19.7255  19
19.7752  16
19.8248  23
19.8744  22
 19.924  15
19.9736  23
20.0233  23
20.0729  20
20.1225  22
20.1721  17
20.2217  26
20.2714  12
 20.321  17
20.3706  23
20.4202  25
20.4698  27
20.5195  25
20.5691  19
20.6187  15
20.6683  15
20.7179  22
20.7676  16
20.8172  24
20.8668  26
20.9164  23
 20.966  35
21.0157  24
21.0653  16
21.1149  20
21.1645  26
21.2141  19
21.2638  18
21.3134  17
 21.363  21
21.4126  20
21.4622  20
21.5119  24
21.5615  25
21.6111  28
21.6607  19
21.7103  28
  21.76  13
21.8096  22
21.8592  12
21.9088  20
21.9584  21
22.0081  22
22.0577  23
22.1073  27
22.1569  21
22.2065  13
22.2562  20
22.3058  23
22.3554  20
 22.405  24
22.4546  16
22.5043  25
22.5539  27
22.6035  22
22.6531  26
22.7027  18
22.7524  31
 22.802  14
22.8516  24
22.9012  24
22.9508  13
23.0005  19
23.0501  28
23.0997  18
23.1493  28
23.1989  17
23.2486  25
23.2982  20
23.3478  24
23.3974  25
 23.447  24
23.4967  29
23.5463  24
23.5959  24
23.6455  23
23.6951  31
23.7448  10
23.7944  15
 23.844  17
23.8936  19
23.9432  26
23.9929  22
24.0425  14
24.0921  24
24.1417  13
24.1913  26
 24.241  23
24.2906  28
24.3402  27
24.3898  18
24.4394  17
24.4891  21
24.5387  31
24.5883  25
24.6379  37
24.6875  25
24.7372  10
24.7868  19
24.8364  26
 24.886  22
24.9357  25
24.9853  18
25.0349  19
25.0845  20
25.1341  21
25.1838  25
25.2334  31
 25.283  22
25.3326  21
25.3822  20
25.4319  10
25.4815  21
25.5311  23
25.5807  27
25.6303  18
  25.68  22
25.7296  16
25.7792  14
25.8288  29
25.8784  22
25.9281  28
25.9777  19
26.0273  23
26.0769  24
26.1265  36
26.1762  33
26.2258  34
26.2754  30
 26.325  42
26.3746  55
26.4243  92
26.4739 141
26.5235  93
26.5731  56
26.6227  42
26.6724  40
 26.722  38
26.7716  45
26.8212  27
26.8708  23
26.9205  15
26.9701  25
27.0197  25
27.0693  24
27.1189  22
27.1686  24
27.2182  18
27.2678  29
27.3174  23
 27.367  30
27.4167  28
27.4663  27
27.5159  35
27.5655  17
27.6151  28
27.6648  35
27.7144  28
 27.764  27
27.8136  22
27.8632  27
27.9129  33
27.9625  36
28.0121  26
28.0617  37
28.1113  30
 28.161  31
28.2106  38
28.2602  58
28.3098  48
28.3594  91
28.4091 192
28.4587 494
28.50832542
28.55794427
28.6075 897
28.6572 184
28.7068  86
28.7564  58
 28.806  51
28.8556  51
28.9053  29
28.9549  47
29.0045  25
29.0541  34
29.1037  20
29.1534  32
 29.203  24
29.2526  27
29.3022  21
29.3518  35
29.4015  23
29.4511  30
29.5007  35
29.5503  24
29.5999  25
29.6496  33
29.6992  27
29.7488  29
29.7984  23
 29.848  31
29.8977  19
29.9473  19
29.9969  23
30.0465  21
30.0961  23
30.1458  18
30.1954  22
 30.245  21
30.2946  12
30.3442  19
30.3939  19
30.4435  17
30.4931  19
30.5427  19
30.5923  25
 30.642  24
30.6916  11
30.7412  15
30.7908  21
30.8404  11
30.8901  21
30.9397  17
30.9893  15
31.0389  14
31.0885  16
31.1382  20
31.1878  14
31.2374  16
 31.287  19
31.3366  24
31.3863  18
31.4359  20
31.4855  17
31.5351  18
31.5847  21
31.6344  17
 31.684  19
31.7336  13
31.7832  17
31.83285
31.8825  22
31.9321  27
31.9817  34
32.0313  40
32.0809  22
32.1306  19
32.1802  21
32.2298  21
32.2794  21
 32.329  25
32.3787  20
32.4283  18
32.4779  17
32.5275  14
32.5771  21
32.6268  18
32.6764  14
 32.726  15
32.7756  11
32.8252  17
32.8749  18
32.9245  21
32.9741  14
33.0237  21
33.07339
 33.123  14
33.1726  14
33.2222  19
33.2718  19
33.3214  17
33.3711  14
33.4207  13
33.4703  23
33.5199  25
33.5695  43
33.6192  68
33.6688  62
33.7184  55
 33.768  31
33.8176  23
33.8673  32
33.9169  17
33.9665  19
34.0161  23
34.0657  13
34.1154  21
 34.165  22
34.2146  16
34.2642  16
34.3138  16
34.3635  11
34.4131  17
34.4627  15
34.5123  15
34.56197
34.6116  15
34.6612  15
34.7108  21
34.7604  17
  34.81  13
34.85979
34.90938
34.9589  16
35.0085  24
35.0582  10
35.1078  11
35.1574  11
 35.207  10
35.25665
35.3063  12
35.35595
35.4055  15
35.4551  18
35.5047  20
35.5544  10
 35.604  12
35.6536  15
35.7032  10
35.7528  11
35.8025  12
35.8521  13
35.9017  12
35.9513  13
36.0009  15
36.0506  17
36.1002  15
36.14987
36.19945
 36.249  10
36.2987  11
36.3483  12
36.39799
36.4475  15
36.4971  16
36.5468  12
36.5964  13
 36.646  11
36.6956  18
36.7452  17
36.7949  23
36.8445  17
36.8941  12
36.9437  16
36.9933  12
 37.043  16
37.0926  19
37.1422  14
37.1918  10
37.24147
37.2911  13
37.3407  27
37.3903  13
37.4399  20
37.4895  26
37.5392  29
37.5888  58
37.6384  94
 37.688  91
37.7376 106
37.7873  43
37.8369  43
37.8865  24
37.9361  22
37.9857  14
38.0354  29
 38.085  21
38.1346  11
38.1842  17
38.23386
38.2835  12
38.3331  11
38.3827  17
38.43236
38.4819  14
38.5316  13
38.5812  11
38.6308  12
38.68049
  38.73  11
38.7797  14
38.8293  12
38.8789  11
38.9285  10
38.9781  12
39.02786
39.0774  12
 39.127  11
39.1766  12
39.22624
39.2759  16
39.32559
39.3751  13
39.4247  10
39.47437
 39.5249
39.5736  13
39.6232  11
39.6728  12
39.72244
39.7721  12
39.8217  12
39.87137
39.9209  11
39.9705  13
40.0202  11
40.06989
40.1194  11
 40.1695
40.21866
40.26837
40.3179  17
40.3675  12
40.4171  10
40.46679
40.5164  11
 40.566  12
40.61569
40.6652  23
40.7148  13
40.7645  15
40.8141  24
40.8637  13
40.9133  13
40.9629  14
41.0126  10
41.0622  10
41.1118  14
41.1614  10
 41.211  10
41.2607  12
41.31037
41.3599  12
41.4095  18
41.4591  13
41.5088  14
41.55849
 41.608  10
41.65768
41.70727
41.7569  10
41.80656
41.85617
41.90578
41.9553  16
 42.005  11
42.0546  13
42.10429
42.1538  11
42.2034  13
42.2531  12
42.3027  11
42.3523  14
42.40197
42.4515  12
42.5012  10
42.5508  11
42.6004  12
  42.65  12
42.69966
42.7493  14
42.7989  11
42.8485  11
42.8981  13
42.94779
42.99749
 43.047  16
43.0966  12
43.1462  13
43.1958  13
43.2455  13
43.2951  21
43.3447  41
43.3943  97
43.4439  64
43.4936  19
43.5432  18
43.5928  12
43.6424  14
 43.692  10
43.7417  23
43.79137
43.8409  10
43.8905  13
43.9401  10
43.9898  14
44.03949
 44.089  14
44.1386  13
44.18828
44.2379  12
44.2875  12
44.3371  14
44.3867  12
44.4363  10
 44.486  12
44.53565
44.58524
44.6348  12
44.68448
44.7341  13
44.78377
44.8333  14
44.8829  11
44.9326  13
44.9822  13
45.0318  15
45.0814  11
 45.131  11
45.18079
45.23035
45.2799  11
45.32958
45.37914
45.42886
45.47848
 45.5286
45.57769
45.62724
45.67695
45.72657
45.7761  11
45.8257  15
45.8753  13
 45.9259
45.9746  11
46.02426
46.0738  11
46.12347
46.17317
46.2227  11
46.27237
46.3219  13
46.3715  14
46.42122
46.4708  11
46.5204  10
  46.578
46.6196  14
46.66939
46.7189  11
46.76859
46.81818
46.8677  14
46.91744
 46.967  11
47.01667
47.06626
47.1158  14
47.16557
47.21518
47.26478
47.3143  13
47.36396
47.4136  14
47.46329
47.51287
47.5624  11
 47.612  10
47.66172
47.7113  12
47.7609  18
47.81056
47.8601  11
47.90987
47.95949
 48.0099
48.05869
48.1082  10
48.15799
48.2075  14
48.2571  13
48.30679
48.35638
 48.406  11
48.45568
48.5052  11
48.55488
48.60447
48.65419
48.70378
48.7533  12
48.8029  10
48.8525  11
48.90229
48.95187
49.0014  11
 49.0516
49.10062
49.1503  10
49.19997
49.24956
49.2991  10
49.3487  12
49.39849
 49.4488
49.49768
49.5472  12
49.59683
49.64658
49.69618
49.7457  10
49.7953  11
49.84495
49.8946  10
49.9442  13
49.9938  12
50.0434  15
 50.0938
50.1427  11
50.1923  17
50.24197
50.2915  14
50.34119
50.39089
50.4404  13
  50.49  16
50.53967
50.5892  16
50.6389  12
50.6885  11
50.7381  10
50.78778
50.83739
 50.887  14
50.9366  15
50.98628
51.0358  10
51.08549
51.1351  17
51.1847  19
51.2343  16
51.2839  21
51.3335  38
51.3832  87
51.4328 133
51.4824 151
 51.532 104
51.5816  56
51.6313  39
51.6809  32
51.7305  26
51.7801  19
51.8297  15
51.8794  18
 51.929  18
51.97866
52.02827
52.07788
52.12759
52.17719
52.2267  14
52.2763  12
52.32596
52.3756  10
52.4252  12
52.47486
52.5244  12
 52.5749
52.62377
52.6733  22
52.72298
52.7725  11
52.82216
52.87186
52.92147
 52.9714
53.0206  10
53.07029
53.1199  10
53.16957
53.2191  12
53.2687  12
53.31834
 53.368  10
53.4176  12
53.46729
53.51687
53.5664  10
53.6161  12
53.66578
53.71538
53.76499
53.8145  11
53.86427
53.91387
53.96349
 54.013  11
54.0626  10
54.1123  11
54.1619  15
54.21157
54.26116
54.31079
54.3604  13
  54.41  13
54.4596  24
54.50928
54.5588  16
54.6085  17
54.65817
54.7077  13
54.75733
 54.807  13
54.85666
54.90627
54.95589
55.00549
55.05517
55.10477
55.15436
55.2039  13
55.2535  15
55.3032  11
55.3528  12
55.40248
 55.4525
55.5016  15
55.55139
55.60096
55.65058
55.70016
55.7497  10
55.79948
 55.849  10
55.89867
55.9482  13
55.9978  10
56.04758
56.09718
56.14678
56.19639
56.2459  13
56.2956  11
56.3452  11
56.3948  14
56.4444  10
 56.4949
56.5437  11
56.59336
56.64296
56.69257
56.7421  13
56.7918  10
56.8414  10
 56.8918
56.94069
56.9902  14
57.03992
57.08956
57.1391  11
57.18878
57.2383  11
 57.288  10
57.33767
57.3872  14
57.4368  17
57.4864  10
57.5361  10
57.58579
57.63536
57.6849  15
57.73458
57.7842  14
57.8338  10
57.8834  10
 57.933  12
57.98265
58.0323  10
58.08199
58.1315  12
58.1811  15
58.2307  18
58.28048
  58.33  13
58.37964
58.42928
58.47887
58.5285  13
58.5781  10
58.6277  10
58.67736
58.72697
58.7766  17
58.8262  11
58.8758  22
58.9254  21
 58.975  39
59.0247  68
59.0743 136
59.1239  71
59.1735  26
59.2231  16
59.2728  17
59.3224  12
 59.3727
59.4216  10
59.47127
59.5209  10
59.57057
59.62019
59.6697  11
59.7193  10
 59.7698
59.81867
59.8682  14
59.91789
59.9674  15
60.01719
60.06676
60.11639
60.1659  12
60.21557
60.2652  13
60.3148  10
60.3644  10
 60.4145
60.4636  15
60.51339
60.5629  11
60.61258
60.6621  15
60.7117  10
60.7614  10
 60.8116
60.8606  12
60.9102  16
60.9598  16
61.0095  13
61.05919
61.1087  13
61.1583  10
61.2079  14
61.2576  14
61.3072  24
61.3568  25
61.4064  24
 61.456  29
61.5057  26
61.5553  22
61.6049  27
61.6545  20
61.7041  22
61.7538  13
61.8034  13
 61.853  15
61.9026  16
61.9522  10
62.00199
62.0515  10
62.1011  15
62.15079
62.2003  10
  62.25  14
62.2996  14
62.3492  14
62.3988  10
62.44849
62.4981  10
62.5477  14
62.5973  14
62.64697
62.69659
62.74627
62.79585
62.84545
 62.8958
62.94466
62.9943  11
63.04397
63.0935  12
63.1431  12
63.19278
63.2424  12
 63.2927
63.3416  10
63.39128
63.4408  16
63.4905  12
63.5401  17
63.5897  16
63.6393  11
63.6889  14
63.73867
63.7882  14
63.8378  11
63.8874  12
 63.937  18
63.98679
64.0363  12
64.0859  10
64.1355  12
64.1851  14
64.2348  20
64.2844  27
 64.334  27
64.3836  21
64.4332  13
64.4829  11
64.5325  11
64.5821  13
64.6317  12
64.6814  10
 64.7317
64.78066
64.8302  11
64.8798  10
64.9295  16
64.9791  16
65.02879
65.0783  10
65.12798
65.1776  11
65.2272  15
65.2768  21
65.3264  44
 65.376  58
65.4257  55
65.4753  62
65.5249  46
65.5745  42
65.6241  43
65.6738  27
65.7234  14
 65.7739
65.8226  19
65.8722  14
65.9219  14
65.9715  12
66.02118
66.0707  12
66.12034
  66.178
66.21969
66.26929
66.31889
66.3684  13
66.41819
66.4677  10
66.5173  10
66.56696
66.61657
66.6662  13
66.71588
66.7654  15
 66.815  12
66.86467
66.9143  10
66.96398
67.0135  10
67.0631  12
67.11278
67.1624  13
 67.2128
67.2616  10
67.31126
67.36086
67.41058
67.4601  11
67.50976
67.55937
67.6089  13
67.65868
67.7082  13
67.75789
67.80749
 67.857  12
67.90679
67.9563  10
68.00596
68.05556
68.1051  14
68.1548  11
68.2044  10
 68.2546
68.3036  14
68.35327
68.40296
68.45258
68.50219
68.55176
68.60139
 68.6518
68.70065
68.75029
68.7998  10
68.8494  17
68.89918
68.94876
68.99838
69.04797
69.09756
69.14724
69.19685
69.2464  10
 69.2968
69.34569
69.3953  12
69.4449  13
69.49459
69.54414
69.59376
69.64347
 69.6936
69.7426  10
69.7922  11
69.84186
69.89157
69.94119
69.9907  10
70.04038
70.0899  14
70.1396  17
70.18924
70.23889
70.28847
 70.3388
70.38777
70.43736
70.48697
70.5365  11
70.58615
70.63586
70.6854  14
 70.7359
70.78466
70.8342  12
70.8839  10
70.9335  11
70.98316
71.0327  12
71.08236
 71.1327
71.18165
71.2312  11
71.28086
71.3304  11
71.38018
71.42978
71.47932
71.52897
71.57855
71.62825
71.67789
71.7274  10
 71.7777
71.82668
71.87637
71.9259  14
71.97558
72.02517
72.07474
72.12449
 72.1748
72.22368
72.2732  14
72.32287
72.37257
72.4221  13
72.47176
72.52136
72.57094
72.62068
72.67027
72.7198  10
72.76947
 72.819  11
72.86879
72.91839
72.96799
73.01758
73.06715
73.1168  11
73.16647
 73.216  10
73.26566
73.3152  10
73.36497
73.4145  10
73.46416
73.5137  12
73.5633  11
 73.6134
73.66264
73.71228
73.76184
73.8114  11
73.8611  13
73.91077
73.96038
74.00993
74.0595  10
74.1092  10
74.1588  16
74.20847
 74.258  14
74.30767
74.35738
74.40697
74.45653
74.50615
74.55585
74.6054  12
 74.6555
74.70466
74.7542  12
74.80394
74.85359
74.90316
74.9527  10
75.00236
 75.0523
75.10167
75.1512  16
75.2008  11
75.25048
75.30015
75.34979
75.39939
75.44895
75.49856
75.54825
75.59786
75.64748
 75.697  13
75.74669
75.79638
75.8459  11
75.89556
75.94513
75.9947  12
76.0444  10
 76.0947
76.14367
76.19327
76.24285
76.29254
76.3421  11
76.39176
76.4413  12
76.49098
76.54069
76.5902  10
76.63984
76.68944
 76.7397
76.78879
76.83837
76.88799
76.93757
76.98718
77.03686
77.08648
 77.136  10
77.1856  12
77.23529
77.2849  11
77.33458
77.38415
77.43375
77.48337
 77.533  11
77.58265
77.6322  17
77.68187
77.73149
77.78119
77.83078
77.8803  10
77.92997
77.97958
78.0292  10
78.07888
78.1284  14
 78.178  18
78.2276  22
78.27738
78.3269  13
78.3765  11
78.42618
78.4757  11
78.5254  11
 78.575  10
78.62467
78.6742  10
78.72387
78.77357
78.82316
78.87276
78.9223  18
78.97198
79.02166
79.0712  12
79.12089
79.17049
  79.225
79.26977
79.31936
79.36896
79.41859
79.46818
79.51784
79.5674  11
 79.617  10
79.66665
79.71627
79.76599
79.81559
79.86519
79.91475
79.96435
 80.0149
