10.00000 630.000
10.04000 692.000
10.08000 651.000
10.12000 680.000
10.16000 630.000
10.20000 638.000
10.24000 644.000
10.28000 636.000
10.32000 640.000
10.36000 643.000
10.40000 681.000
10.44000 608.000
10.48000 685.000
10.52000 642.000
10.56000 644.000
10.60000 627.000
10.64000 657.000
10.68000 602.000
10.72000 705.000
10.76000 598.000
10.80000 601.000
10.84000 598.000
10.88000 615.000
10.92000 588.000
10.96000 604.000
11.00000 628.000
11.04000 632.000
11.08000 643.000
11.12000 655.000
11.16000 602.000
11.20000 632.000
11.24000 558.000
11.28000 655.000
11.32000 619.000
11.36000 619.000
11.40000 591.000
11.44000 614.000
11.48000 576.000
11.52000 634.000
11.56000 625.000
11.60000 601.000
11.64000 606.000
11.68000 576.000
11.72000 651.000
11.76000 644.000
11.80000 594.000
11.84000 583.000
11.88000 648.000
11.92000 597.000
11.96000 548.000
12.00000 615.000
12.04000 586.000
12.08000 619.000
12.12000 587.000
12.16000 634.000
12.20000 652.000
12.24000 607.000
12.28000 605.000
12.32000 623.000
12.36000 593.000
12.40000 582.000
12.44000 598.000
12.48000 607.000
12.52000 609.000
12.56000 645.000
12.60000 624.000
12.64000 680.000
12.68000 703.000
12.72000 746.000
12.76000 769.000
12.80000 875.000
12.84000 959.000
12.88000 1130.000
12.92000 1277.000
12.96000 1238.000
13.00000 972.000
13.04000 877.000
13.08000 773.000
13.12000 749.000
13.16000 757.000
13.20000 754.000
13.24000 740.000
13.28000 749.000
13.32000 735.000
13.36000 741.000
13.40000 804.000
13.44000 860.000
13.48000 850.000
13.52000 964.000
13.56000 1058.000
13.60000 1211.000
13.64000 1544.000
13.68000 1774.000
13.72000 1953.000
13.76000 1963.000
13.80000 2110.000
13.84000 2173.000
13.88000 2563.000
13.92000 3241.000
13.96000 4441.000
14.00000 6500.000
14.04000 9772.000
14.08000 14325.000
14.12000 23056.000
14.16000 40716.000
14.20000 77869.000
14.24000 158422.600
14.28000 299486.300
14.32000 367428.400
14.36000 271628.200
14.40000 135417.500
14.44000 71275.000
14.48000 39600.000
14.52000 22901.000
14.56000 13434.000
14.60000 9012.000
14.64000 7375.000
14.68000 6778.000
14.72000 6870.000
14.76000 7136.000
14.80000 7547.000
14.84000 7969.000
14.88000 7520.000
14.92000 6570.000
14.96000 5467.000
15.00000 4234.000
15.04000 3318.000
15.08000 2749.000
15.12000 2207.000
15.16000 1861.000
15.20000 1547.000
15.24000 1443.000
15.28000 1301.000
15.32000 1142.000
15.36000 1104.000
15.40000 1023.000
15.44000 966.000
15.48000 990.000
15.52000 900.000
15.56000 825.000
15.60000 854.000
15.64000 777.000
15.68000 804.000
15.72000 768.000
15.76000 804.000
15.80000 710.000
15.84000 715.000
15.88000 693.000
15.92000 672.000
15.96000 652.000
16.00000 683.000
16.04000 688.000
16.08000 692.000
16.12000 651.000
16.16000 667.000
16.20000 669.000
16.24000 693.000
16.28000 698.000
16.32000 646.000
16.36000 654.000
16.40000 702.000
16.44000 676.000
16.48000 665.000
16.52000 612.000
16.56000 691.000
16.60000 566.000
16.64000 607.000
16.68000 588.000
16.72000 678.000
16.76000 696.000
16.80000 674.000
16.84000 618.000
16.88000 672.000
16.92000 638.000
16.96000 632.000
17.00000 683.000
17.04000 609.000
17.08000 637.000
17.12000 621.000
17.16000 623.000
17.20000 672.000
17.24000 640.000
17.28000 630.000
17.32000 594.000
17.36000 638.000
17.40000 637.000
17.44000 682.000
17.48000 629.000
17.52000 649.000
17.56000 670.000
17.60000 643.000
17.64000 641.000
17.68000 635.000
17.72000 615.000
17.76000 644.000
17.80000 662.000
17.84000 667.000
17.88000 669.000
17.92000 648.000
17.96000 637.000
18.00000 614.000
18.04000 679.000
18.08000 684.000
18.12000 642.000
18.16000 653.000
18.20000 667.000
18.24000 639.000
18.28000 664.000
18.32000 682.000
18.36000 666.000
18.40000 687.000
18.44000 674.000
18.48000 654.000
18.52000 687.000
18.56000 710.000
18.60000 681.000
18.64000 694.000
18.68000 722.000
18.72000 697.000
18.76000 654.000
18.80000 707.000
18.84000 686.000
18.88000 748.000
18.92000 705.000
18.96000 680.000
19.00000 750.000
19.04000 716.000
19.08000 721.000
19.12000 717.000
19.16000 733.000
19.20000 724.000
19.24000 790.000
19.28000 775.000
19.32000 797.000
19.36000 763.000
19.40000 739.000
19.44000 725.000
19.48000 718.000
19.52000 769.000
19.56000 776.000
19.60000 773.000
19.64000 724.000
19.68000 792.000
19.72000 793.000
19.76000 785.000
19.80000 752.000
19.84000 771.000
19.88000 787.000
19.92000 793.000
19.96000 770.000
20.00000 763.000
20.04000 809.000
20.08000 811.000
20.12000 801.000
20.16000 765.000
20.20000 836.000
20.24000 846.000
20.28000 785.000
20.32000 809.000
20.36000 812.000
20.40000 794.000
20.44000 787.000
20.48000 842.000
20.52000 790.000
20.56000 861.000
20.60000 824.000
20.64000 829.000
20.68000 821.000
20.72000 822.000
20.76000 802.000
20.80000 810.000
20.84000 909.000
20.88000 790.000
20.92000 866.000
20.96000 873.000
21.00000 833.000
21.04000 902.000
21.08000 812.000
21.12000 834.000
21.16000 827.000
21.20000 830.000
21.24000 850.000
21.28000 850.000
21.32000 918.000
21.36000 888.000
21.40000 855.000
21.44000 897.000
21.48000 890.000
21.52000 879.000
21.56000 927.000
21.60000 854.000
21.64000 885.000
21.68000 878.000
21.72000 880.000
21.76000 888.000
21.80000 940.000
21.84000 950.000
21.88000 871.000
21.92000 901.000
21.96000 876.000
22.00000 943.000
22.04000 888.000
22.08000 934.000
22.12000 913.000
22.16000 934.000
22.20000 883.000
22.24000 921.000
22.28000 969.000
22.32000 920.000
22.36000 885.000
22.40000 939.000
22.44000 949.000
22.48000 935.000
22.52000 980.000
22.56000 1014.000
22.60000 909.000
22.64000 924.000
22.68000 960.000
22.72000 880.000
22.76000 950.000
22.80000 976.000
22.84000 950.000
22.88000 1001.000
22.92000 959.000
22.96000 951.000
23.00000 927.000
23.04000 911.000
23.08000 886.000
23.12000 977.000
23.16000 964.000
23.20000 955.000
23.24000 1007.000
23.28000 910.000
23.32000 979.000
23.36000 961.000
23.40000 996.000
23.44000 949.000
23.48000 953.000
23.52000 966.000
23.56000 974.000
23.60000 924.000
23.64000 970.000
23.68000 932.000
23.72000 930.000
23.76000 946.000
23.80000 953.000
23.84000 967.000
23.88000 951.000
23.92000 1024.000
23.96000 971.000
24.00000 951.000
24.04000 997.000
24.08000 949.000
24.12000 954.000
24.16000 1009.000
24.20000 997.000
24.24000 992.000
24.28000 960.000
24.32000 1005.000
24.36000 970.000
24.40000 996.000
24.44000 1038.000
24.48000 1033.000
24.52000 987.000
24.56000 1018.000
24.60000 1052.000
24.64000 1136.000
24.68000 996.000
24.72000 1124.000
24.76000 1176.000
24.80000 1197.000
24.84000 1183.000
24.88000 1190.000
24.92000 1111.000
24.96000 991.000
25.00000 1041.000
25.04000 1008.000
25.08000 1002.000
25.12000 1007.000
25.16000 1008.000
25.20000 953.000
25.24000 1012.000
25.28000 901.000
25.32000 982.000
25.36000 958.000
25.40000 1057.000
25.44000 1062.000
25.48000 1015.000
25.52000 1034.000
25.56000 1024.000
25.60000 1107.000
25.64000 1162.000
25.68000 1199.000
25.72000 1205.000
25.76000 1232.000
25.80000 1336.000
25.84000 1415.000
25.88000 1653.000
25.92000 1662.000
25.96000 1425.000
26.00000 1230.000
26.04000 1074.000
26.08000 1100.000
26.12000 995.000
26.16000 1029.000
26.20000 1032.000
26.24000 1081.000
26.28000 1019.000
26.32000 1057.000
26.36000 1048.000
26.40000 1018.000
26.44000 1057.000
26.48000 1057.000
26.52000 1021.000
26.56000 1029.000
26.60000 1046.000
26.64000 1025.000
26.68000 1058.000
26.72000 1055.000
26.76000 994.000
26.80000 1086.000
26.84000 1069.000
26.88000 1041.000
26.92000 1048.000
26.96000 1064.000
27.00000 1071.000
27.04000 1151.000
27.08000 1115.000
27.12000 1092.000
27.16000 1093.000
27.20000 1140.000
27.24000 1133.000
27.28000 1240.000
27.32000 1227.000
27.36000 1451.000
27.40000 1438.000
27.44000 1710.000
27.48000 1874.000
27.52000 1735.000
27.56000 1561.000
27.60000 1527.000
27.64000 1622.000
27.68000 1614.000
27.72000 1601.000
27.76000 1597.000
27.80000 1593.000
27.84000 1725.000
27.88000 1812.000
27.92000 1760.000
27.96000 1822.000
28.00000 1926.000
28.04000 1964.000
28.08000 2170.000
28.12000 2326.000
28.16000 2413.000
28.20000 2759.000
28.24000 2923.000
28.28000 3403.000
28.32000 4024.000
28.36000 5086.000
28.40000 7111.000
28.44000 10348.000
28.48000 15378.000
28.52000 24523.000
28.56000 43043.000
28.60000 79915.000
28.64000 152636.300
28.68000 259729.000
28.72000 324264.700
28.76000 273868.100
28.80000 193046.900
28.84000 112832.300
28.88000 59486.000
28.92000 33491.000
28.96000 19485.000
29.00000 12619.000
29.04000 8820.000
29.08000 6872.000
29.12000 5734.000
29.16000 5097.000
29.20000 4602.000
29.24000 4341.000
29.28000 4190.000
29.32000 3950.000
29.36000 3876.000
29.40000 3723.000
29.44000 3799.000
29.48000 3868.000
29.52000 4043.000
29.56000 4214.000
29.60000 4455.000
29.64000 4840.000
29.68000 5327.000
29.72000 5667.000
29.76000 6012.000
29.80000 6318.000
29.84000 6338.000
29.88000 6412.000
29.92000 6024.000
29.96000 5534.000
30.00000 5016.000
30.04000 4330.000
30.08000 4000.000
30.12000 3347.000
30.16000 3008.000
30.20000 2771.000
30.24000 2400.000
30.28000 2220.000
30.32000 2023.000
30.36000 1897.000
30.40000 1733.000
30.44000 1722.000
30.48000 1527.000
30.52000 1470.000
30.56000 1336.000
30.60000 1383.000
30.64000 1331.000
30.68000 1231.000
30.72000 1296.000
30.76000 1258.000
30.80000 1211.000
30.84000 1163.000
30.88000 1102.000
30.92000 1084.000
30.96000 1064.000
31.00000 1085.000
31.04000 1055.000
31.08000 1051.000
31.12000 1018.000
31.16000 966.000
31.20000 1019.000
31.24000 1027.000
31.28000 953.000
31.32000 929.000
31.36000 919.000
31.40000 1017.000
31.44000 914.000
31.48000 913.000
31.52000 868.000
31.56000 847.000
31.60000 849.000
31.64000 885.000
31.68000 900.000
31.72000 840.000
31.76000 894.000
31.80000 850.000
31.84000 884.000
31.88000 893.000
31.92000 896.000
31.96000 784.000
32.00000 905.000
32.04000 859.000
32.08000 973.000
32.12000 900.000
32.16000 936.000
32.20000 944.000
32.24000 950.000
32.28000 938.000
32.32000 842.000
32.36000 754.000
32.40000 771.000
32.44000 752.000
32.48000 765.000
32.52000 765.000
32.56000 730.000
32.60000 727.000
32.64000 781.000
32.68000 814.000
32.72000 744.000
32.76000 791.000
32.80000 745.000
32.84000 731.000
32.88000 753.000
32.92000 737.000
32.96000 759.000
33.00000 760.000
33.04000 750.000
33.08000 719.000
33.12000 748.000
33.16000 668.000
33.20000 724.000
33.24000 692.000
33.28000 694.000
33.32000 740.000
33.36000 717.000
33.40000 698.000
33.44000 711.000
33.48000 721.000
33.52000 742.000
33.56000 689.000
33.60000 688.000
33.64000 718.000
33.68000 699.000
33.72000 706.000
33.76000 669.000
33.80000 688.000
33.84000 711.000
33.88000 688.000
33.92000 692.000
33.96000 658.000
34.00000 681.000
34.04000 653.000
34.08000 638.000
34.12000 704.000
34.16000 627.000
34.20000 638.000
34.24000 620.000
34.28000 646.000
34.32000 588.000
34.36000 618.000
34.40000 597.000
34.44000 652.000
34.48000 609.000
34.52000 618.000
34.56000 641.000
34.60000 611.000
34.64000 582.000
34.68000 657.000
34.72000 586.000
34.76000 618.000
34.80000 588.000
34.84000 648.000
34.88000 619.000
34.92000 623.000
34.96000 602.000
35.00000 614.000
35.04000 619.000
35.08000 528.000
35.12000 600.000
35.16000 619.000
35.20000 550.000
35.24000 635.000
35.28000 595.000
35.32000 554.000
35.36000 585.000
35.40000 604.000
35.44000 567.000
35.48000 539.000
35.52000 559.000
35.56000 591.000
35.60000 514.000
35.64000 599.000
35.68000 552.000
35.72000 557.000
35.76000 558.000
35.80000 558.000
35.84000 511.000
35.88000 523.000
35.92000 557.000
35.96000 566.000
36.00000 510.000
36.04000 534.000
36.08000 573.000
36.12000 549.000
36.16000 511.000
36.20000 587.000
36.24000 506.000
36.28000 513.000
36.32000 517.000
36.36000 524.000
36.40000 542.000
36.44000 518.000
36.48000 514.000
36.52000 528.000
36.56000 547.000
36.60000 481.000
36.64000 527.000
36.68000 517.000
36.72000 481.000
36.76000 478.000
36.80000 484.000
36.84000 498.000
36.88000 522.000
36.92000 488.000
36.96000 526.000
37.00000 490.000
37.04000 506.000
37.08000 501.000
37.12000 507.000
37.16000 521.000
37.20000 496.000
37.24000 480.000
37.28000 485.000
37.32000 509.000
37.36000 479.000
37.40000 508.000
37.44000 479.000
37.48000 483.000
37.52000 470.000
37.56000 459.000
37.60000 465.000
37.64000 440.000
37.68000 510.000
37.72000 464.000
37.76000 455.000
37.80000 489.000
37.84000 435.000
37.88000 453.000
37.92000 458.000
37.96000 469.000
38.00000 488.000
38.04000 516.000
38.08000 410.000
38.12000 482.000
38.16000 456.000
38.20000 464.000
38.24000 468.000
38.28000 476.000
38.32000 459.000
38.36000 463.000
38.40000 466.000
38.44000 434.000
38.48000 448.000
38.52000 470.000
38.56000 449.000
38.60000 474.000
38.64000 474.000
38.68000 458.000
38.72000 436.000
38.76000 463.000
38.80000 438.000
38.84000 410.000
38.88000 476.000
38.92000 471.000
38.96000 479.000
39.00000 483.000
39.04000 477.000
39.08000 473.000
39.12000 491.000
39.16000 467.000
39.20000 480.000
39.24000 492.000
39.28000 457.000
39.32000 454.000
39.36000 439.000
39.40000 452.000
39.44000 453.000
39.48000 443.000
39.52000 443.000
39.56000 445.000
39.60000 399.000
39.64000 433.000
39.68000 415.000
39.72000 466.000
39.76000 422.000
39.80000 451.000
39.84000 431.000
39.88000 433.000
39.92000 457.000
39.96000 453.000
40.00000 452.000
40.04000 416.000
40.08000 428.000
40.12000 446.000
40.16000 431.000
40.20000 456.000
40.24000 456.000
40.28000 428.000
40.32000 441.000
40.36000 474.000
40.40000 381.000
40.44000 445.000
40.48000 427.000
40.52000 457.000
40.56000 458.000
40.60000 467.000
40.64000 454.000
40.68000 480.000
40.72000 478.000
40.76000 546.000
40.80000 523.000
40.84000 614.000
40.88000 745.000
40.92000 960.000
40.96000 1181.000
41.00000 1307.000
41.04000 1282.000
41.08000 1123.000
41.12000 953.000
41.16000 773.000
41.20000 631.000
41.24000 536.000
41.28000 507.000
41.32000 491.000
41.36000 471.000
41.40000 457.000
41.44000 437.000
41.48000 521.000
41.52000 442.000
41.56000 446.000
41.60000 454.000
41.64000 457.000
41.68000 469.000
41.72000 484.000
41.76000 479.000
41.80000 474.000
41.84000 453.000
41.88000 462.000
41.92000 488.000
41.96000 483.000
42.00000 482.000
42.04000 445.000
42.08000 478.000
42.12000 444.000
42.16000 502.000
42.20000 470.000
42.24000 462.000
42.28000 476.000
42.32000 481.000
42.36000 508.000
42.40000 484.000
42.44000 493.000
42.48000 495.000
42.52000 490.000
42.56000 495.000
42.60000 464.000
42.64000 546.000
42.68000 492.000
42.72000 461.000
42.76000 486.000
42.80000 496.000
42.84000 499.000
42.88000 498.000
42.92000 509.000
42.96000 527.000
43.00000 484.000
43.04000 542.000
43.08000 539.000
43.12000 551.000
43.16000 552.000
43.20000 507.000
43.24000 571.000
43.28000 673.000
43.32000 695.000
43.36000 850.000
43.40000 1138.000
43.44000 1528.000
43.48000 2459.000
43.52000 4270.000
43.56000 6583.000
43.60000 7612.000
43.64000 6616.000
43.68000 5686.000
43.72000 4689.000
43.76000 3353.000
43.80000 1978.000
43.84000 1319.000
43.88000 953.000
43.92000 801.000
43.96000 655.000
44.00000 629.000
44.04000 577.000
44.08000 563.000
44.12000 537.000
44.16000 541.000
44.20000 521.000
44.24000 505.000
44.28000 492.000
44.32000 506.000
44.36000 515.000
44.40000 475.000
44.44000 538.000
44.48000 481.000
44.52000 437.000
44.56000 466.000
44.60000 490.000
44.64000 444.000
44.68000 471.000
44.72000 466.000
44.76000 493.000
44.80000 487.000
44.84000 477.000
44.88000 480.000
44.92000 507.000
44.96000 462.000
45.00000 512.000
45.04000 494.000
45.08000 477.000
45.12000 492.000
45.16000 520.000
45.20000 473.000
45.24000 475.000
45.28000 465.000
45.32000 510.000
45.36000 526.000
45.40000 497.000
45.44000 545.000
45.48000 501.000
45.52000 455.000
45.56000 484.000
45.60000 488.000
45.64000 461.000
45.68000 473.000
45.72000 462.000
45.76000 427.000
45.80000 443.000
45.84000 421.000
45.88000 458.000
45.92000 463.000
45.96000 419.000
46.00000 424.000
46.04000 439.000
46.08000 435.000
46.12000 464.000
46.16000 429.000
46.20000 393.000
46.24000 398.000
46.28000 416.000
46.32000 391.000
46.36000 418.000
46.40000 429.000
46.44000 413.000
46.48000 374.000
46.52000 411.000
46.56000 392.000
46.60000 375.000
46.64000 401.000
46.68000 427.000
46.72000 395.000
46.76000 421.000
46.80000 431.000
46.84000 395.000
46.88000 419.000
46.92000 400.000
46.96000 403.000
47.00000 404.000
47.04000 418.000
47.08000 385.000
47.12000 443.000
47.16000 404.000
47.20000 414.000
47.24000 398.000
47.28000 384.000
47.32000 400.000
47.36000 385.000
47.40000 390.000
47.44000 377.000
47.48000 397.000
47.52000 380.000
47.56000 409.000
47.60000 380.000
47.64000 406.000
47.68000 425.000
47.72000 352.000
47.76000 369.000
47.80000 407.000
47.84000 381.000
47.88000 412.000
47.92000 386.000
47.96000 410.000
48.00000 384.000
48.04000 394.000
48.08000 362.000
48.12000 388.000
48.16000 382.000
48.20000 406.000
48.24000 412.000
48.28000 412.000
48.32000 411.000
48.36000 373.000
48.40000 401.000
48.44000 396.000
48.48000 357.000
48.52000 412.000
48.56000 395.000
48.60000 378.000
48.64000 391.000
48.68000 408.000
48.72000 365.000
48.76000 343.000
48.80000 380.000
48.84000 370.000
48.88000 383.000
48.92000 431.000
48.96000 396.000
49.00000 413.000
49.04000 353.000
49.08000 406.000
49.12000 372.000
49.16000 378.000
49.20000 346.000
49.24000 371.000
49.28000 353.000
49.32000 379.000
49.36000 375.000
49.40000 332.000
49.44000 359.000
49.48000 383.000
49.52000 394.000
49.56000 379.000
49.60000 367.000
49.64000 365.000
49.68000 377.000
49.72000 393.000
49.76000 375.000
49.80000 359.000
49.84000 389.000
49.88000 349.000
49.92000 411.000
49.96000 382.000
50.00000 357.000
50.04000 378.000
50.08000 426.000
50.12000 401.000
50.16000 340.000
50.20000 378.000
50.24000 372.000
50.28000 401.000
50.32000 380.000
50.36000 397.000
50.40000 375.000
50.44000 357.000
50.48000 385.000
50.52000 400.000
50.56000 399.000
50.60000 358.000
50.64000 372.000
50.68000 417.000
50.72000 363.000
50.76000 389.000
50.80000 411.000
50.84000 351.000
50.88000 391.000
50.92000 382.000
50.96000 369.000
51.00000 338.000
51.04000 423.000
51.08000 359.000
51.12000 344.000
51.16000 364.000
51.20000 366.000
51.24000 366.000
51.28000 364.000
51.32000 380.000
51.36000 377.000
51.40000 381.000
51.44000 368.000
51.48000 321.000
51.52000 365.000
51.56000 372.000
51.60000 387.000
51.64000 364.000
51.68000 366.000
51.72000 377.000
51.76000 346.000
51.80000 368.000
51.84000 366.000
51.88000 350.000
51.92000 348.000
51.96000 384.000
52.00000 360.000
52.04000 349.000
52.08000 395.000
52.12000 351.000
52.16000 331.000
52.20000 376.000
52.24000 351.000
52.28000 380.000
52.32000 390.000
52.36000 345.000
52.40000 370.000
52.44000 394.000
52.48000 353.000
52.52000 358.000
52.56000 402.000
52.60000 382.000
52.64000 364.000
52.68000 372.000
52.72000 380.000
52.76000 349.000
52.80000 368.000
52.84000 369.000
52.88000 360.000
52.92000 361.000
52.96000 365.000
53.00000 386.000
53.04000 419.000
53.08000 423.000
53.12000 391.000
53.16000 424.000
53.20000 371.000
53.24000 355.000
53.28000 360.000
53.32000 373.000
53.36000 376.000
53.40000 383.000
53.44000 367.000
53.48000 349.000
53.52000 362.000
53.56000 415.000
53.60000 350.000
53.64000 352.000
53.68000 395.000
53.72000 373.000
53.76000 351.000
53.80000 336.000
53.84000 344.000
53.88000 351.000
53.92000 371.000
53.96000 361.000
54.00000 375.000
54.04000 406.000
54.08000 334.000
54.12000 363.000
54.16000 369.000
54.20000 358.000
54.24000 367.000
54.28000 344.000
54.32000 374.000
54.36000 351.000
54.40000 345.000
54.44000 375.000
54.48000 353.000
54.52000 353.000
54.56000 364.000
54.60000 358.000
54.64000 402.000
54.68000 374.000
54.72000 378.000
54.76000 403.000
54.80000 372.000
54.84000 334.000
54.88000 388.000
54.92000 348.000
54.96000 363.000
55.00000 385.000
55.04000 369.000
55.08000 347.000
55.12000 353.000
55.16000 354.000
55.20000 378.000
55.24000 378.000
55.28000 377.000
55.32000 378.000
55.36000 370.000
55.40000 341.000
55.44000 368.000
55.48000 357.000
55.52000 357.000
55.56000 368.000
55.60000 373.000
55.64000 408.000
55.68000 396.000
55.72000 405.000
55.76000 367.000
55.80000 399.000
55.84000 371.000
55.88000 362.000
55.92000 340.000
55.96000 388.000
56.00000 352.000
56.04000 316.000
56.08000 349.000
56.12000 362.000
56.16000 350.000
56.20000 365.000
56.24000 389.000
56.28000 349.000
56.32000 380.000
56.36000 396.000
56.40000 375.000
56.44000 397.000
56.48000 382.000
56.52000 386.000
56.56000 406.000
56.60000 403.000
56.64000 391.000
56.68000 399.000
56.72000 363.000
56.76000 350.000
56.80000 368.000
56.84000 405.000
56.88000 389.000
56.92000 394.000
56.96000 405.000
57.00000 381.000
57.04000 371.000
57.08000 385.000
57.12000 398.000
57.16000 405.000
57.20000 357.000
57.24000 360.000
57.28000 403.000
57.32000 434.000
57.36000 418.000
57.40000 419.000
57.44000 395.000
57.48000 387.000
57.52000 409.000
57.56000 355.000
57.60000 459.000
57.64000 357.000
57.68000 434.000
57.72000 413.000
57.76000 401.000
57.80000 403.000
57.84000 398.000
57.88000 380.000
57.92000 419.000
57.96000 420.000
58.00000 431.000
58.04000 389.000
58.08000 423.000
58.12000 403.000
58.16000 368.000
58.20000 448.000
58.24000 398.000
58.28000 436.000
58.32000 398.000
58.36000 453.000
58.40000 433.000
58.44000 434.000
58.48000 440.000
58.52000 458.000
58.56000 477.000
58.60000 439.000
58.64000 466.000
58.68000 479.000
58.72000 523.000
58.76000 475.000
58.80000 549.000
58.84000 521.000
58.88000 601.000
58.92000 672.000
58.96000 716.000
59.00000 849.000
59.04000 941.000
59.08000 1259.000
59.12000 1684.000
59.16000 2719.000
59.20000 4595.000
59.24000 7685.000
59.28000 10458.000
59.32000 10426.000
59.36000 8222.000
59.40000 7101.000
59.44000 7049.000
59.48000 6216.000
59.52000 4186.000
59.56000 2732.000
59.60000 1789.000
59.64000 1328.000
59.68000 942.000
59.72000 869.000
59.76000 726.000
59.80000 649.000
59.84000 604.000
59.88000 608.000
59.92000 531.000
59.96000 503.000
60.00000 502.000
60.04000 490.000
60.08000 500.000
60.12000 436.000
60.16000 513.000
60.20000 481.000
60.24000 484.000
60.28000 441.000
60.32000 443.000
60.36000 486.000
60.40000 448.000
60.44000 466.000
60.48000 444.000
60.52000 422.000
60.56000 423.000
60.60000 402.000
60.64000 456.000
60.68000 405.000
60.72000 428.000
60.76000 437.000
60.80000 419.000
60.84000 415.000
60.88000 405.000
60.92000 420.000
60.96000 392.000
61.00000 428.000
61.04000 394.000
61.08000 441.000
61.12000 426.000
61.16000 460.000
61.20000 425.000
61.24000 491.000
61.28000 444.000
61.32000 464.000
61.36000 464.000
61.40000 512.000
61.44000 443.000
61.48000 443.000
61.52000 420.000
61.56000 442.000
61.60000 434.000
61.64000 436.000
61.68000 463.000
61.72000 438.000
61.76000 466.000
61.80000 472.000
61.84000 493.000
61.88000 481.000
61.92000 463.000
61.96000 485.000
62.00000 438.000
62.04000 456.000
62.08000 470.000
62.12000 455.000
62.16000 434.000
62.20000 428.000
62.24000 391.000
62.28000 415.000
62.32000 386.000
62.36000 428.000
62.40000 373.000
62.44000 406.000
62.48000 446.000
62.52000 407.000
62.56000 407.000
62.60000 400.000
62.64000 403.000
62.68000 393.000
62.72000 403.000
62.76000 371.000
62.80000 391.000
62.84000 361.000
62.88000 391.000
62.92000 382.000
62.96000 392.000
63.00000 388.000
63.04000 346.000
63.08000 362.000
63.12000 355.000
63.16000 369.000
63.20000 392.000
63.24000 361.000
63.28000 382.000
63.32000 397.000
63.36000 389.000
63.40000 372.000
63.44000 341.000
63.48000 378.000
63.52000 358.000
63.56000 357.000
63.60000 347.000
63.64000 373.000
63.68000 358.000
63.72000 349.000
63.76000 375.000
63.80000 356.000
63.84000 391.000
63.88000 355.000
63.92000 368.000
63.96000 357.000
64.00000 374.000
64.04000 337.000
64.08000 378.000
64.12000 333.000
64.16000 362.000
64.20000 385.000
64.24000 387.000
64.28000 398.000
64.32000 337.000
64.36000 332.000
64.40000 350.000
64.44000 384.000
64.48000 346.000
64.52000 354.000
64.56000 363.000
64.60000 340.000
64.64000 363.000
64.68000 382.000
64.72000 358.000
64.76000 348.000
64.80000 355.000
64.84000 334.000
64.88000 369.000
64.92000 374.000
64.96000 339.000
65.00000 370.000
65.04000 335.000
65.08000 363.000
65.12000 346.000
65.16000 350.000
65.20000 352.000
65.24000 337.000
65.28000 347.000
65.32000 365.000
65.36000 359.000
65.40000 336.000
65.44000 351.000
65.48000 323.000
65.52000 391.000
65.56000 332.000
65.60000 350.000
65.64000 355.000
65.68000 350.000
65.72000 298.000
65.76000 331.000
65.80000 335.000
65.84000 337.000
65.88000 359.000
65.92000 345.000
65.96000 309.000
66.00000 357.000
66.04000 340.000
66.08000 340.000
66.12000 344.000
66.16000 328.000
66.20000 363.000
66.24000 323.000
66.28000 333.000
66.32000 355.000
66.36000 335.000
66.40000 346.000
66.44000 332.000
66.48000 333.000
66.52000 359.000
66.56000 344.000
66.60000 345.000
66.64000 342.000
66.68000 324.000
66.72000 339.000
66.76000 336.000
66.80000 339.000
66.84000 360.000
66.88000 352.000
66.92000 312.000
66.96000 341.000
67.00000 329.000
67.04000 306.000
67.08000 334.000
67.12000 321.000
67.16000 322.000
67.20000 366.000
67.24000 330.000
67.28000 361.000
67.32000 329.000
67.36000 317.000
67.40000 327.000
67.44000 336.000
67.48000 344.000
67.52000 365.000
67.56000 325.000
67.60000 313.000
67.64000 328.000
67.68000 315.000
67.72000 323.000
67.76000 319.000
67.80000 333.000
67.84000 295.000
67.88000 358.000
67.92000 321.000
67.96000 311.000
68.00000 318.000
68.04000 304.000
68.08000 327.000
68.12000 296.000
68.16000 348.000
68.20000 317.000
68.24000 336.000
68.28000 333.000
68.32000 314.000
68.36000 303.000
68.40000 287.000
68.44000 312.000
68.48000 350.000
68.52000 315.000
68.56000 303.000
68.60000 314.000
68.64000 311.000
68.68000 329.000
68.72000 341.000
68.76000 314.000
68.80000 318.000
68.84000 331.000
68.88000 309.000
68.92000 372.000
68.96000 314.000
69.00000 324.000
69.04000 308.000
69.08000 301.000
69.12000 308.000
69.16000 315.000
69.20000 295.000
69.24000 281.000
69.28000 338.000
69.32000 324.000
69.36000 340.000
69.40000 318.000
69.44000 314.000
69.48000 293.000
69.52000 288.000
69.56000 318.000
69.60000 331.000
69.64000 302.000
69.68000 268.000
69.72000 296.000
69.76000 308.000
69.80000 277.000
69.84000 317.000
69.88000 333.000
69.92000 304.000
