10.00000 890.000
10.04000 849.000
10.08000 873.000
10.12000 767.000
10.16000 824.000
10.20000 765.000
10.24000 757.000
10.28000 767.000
10.32000 686.000
10.36000 657.000
10.40000 744.000
10.44000 759.000
10.48000 764.000
10.52000 718.000
10.56000 731.000
10.60000 726.000
10.64000 739.000
10.68000 672.000
10.72000 673.000
10.76000 733.000
10.80000 720.000
10.84000 758.000
10.88000 739.000
10.92000 736.000
10.96000 769.000
11.00000 681.000
11.04000 741.000
11.08000 724.000
11.12000 675.000
11.16000 694.000
11.20000 668.000
11.24000 720.000
11.28000 677.000
11.32000 684.000
11.36000 726.000
11.40000 691.000
11.44000 694.000
11.48000 711.000
11.52000 712.000
11.56000 720.000
11.60000 712.000
11.64000 687.000
11.68000 704.000
11.72000 702.000
11.76000 700.000
11.80000 721.000
11.84000 732.000
11.88000 703.000
11.92000 704.000
11.96000 722.000
12.00000 678.000
12.04000 710.000
12.08000 754.000
12.12000 665.000
12.16000 763.000
12.20000 733.000
12.24000 757.000
12.28000 731.000
12.32000 703.000
12.36000 752.000
12.40000 768.000
12.44000 824.000
12.48000 773.000
12.52000 817.000
12.56000 840.000
12.60000 850.000
12.64000 945.000
12.68000 1000.000
12.72000 1023.000
12.76000 1056.000
12.80000 1174.000
12.84000 1301.000
12.88000 1344.000
12.92000 1303.000
12.96000 1267.000
13.00000 1149.000
13.04000 1060.000
13.08000 1059.000
13.12000 1084.000
13.16000 1108.000
13.20000 1095.000
13.24000 1132.000
13.28000 1134.000
13.32000 1217.000
13.36000 1202.000
13.40000 1283.000
13.44000 1291.000
13.48000 1417.000
13.52000 1389.000
13.56000 1523.000
13.60000 1740.000
13.64000 1883.000
13.68000 2074.000
13.72000 2222.000
13.76000 2282.000
13.80000 2544.000
13.84000 2773.000
13.88000 3298.000
13.92000 3835.000
13.96000 4978.000
14.00000 6434.000
14.04000 8393.000
14.08000 11918.000
14.12000 17440.000
14.16000 27822.000
14.20000 45914.000
14.24000 78928.000
14.28000 124685.000
14.32000 145151.000
14.36000 110991.000
14.40000 62202.000
14.44000 33812.000
14.48000 19751.000
14.52000 12424.000
14.56000 8374.000
14.60000 6643.000
14.64000 6266.000
14.68000 6869.000
14.72000 7954.000
14.76000 10196.000
14.80000 12656.000
14.84000 14243.000
14.88000 13103.000
14.92000 10334.000
14.96000 7084.000
15.00000 4963.000
15.04000 3586.000
15.08000 2659.000
15.12000 2113.000
15.16000 1758.000
15.20000 1532.000
15.24000 1396.000
15.28000 1321.000
15.32000 1153.000
15.36000 1156.000
15.40000 1023.000
15.44000 966.000
15.48000 981.000
15.52000 924.000
15.56000 912.000
15.60000 849.000
15.64000 847.000
15.68000 774.000
15.72000 783.000
15.76000 802.000
15.80000 796.000
15.84000 791.000
15.88000 781.000
15.92000 741.000
15.96000 777.000
16.00000 715.000
16.04000 749.000
16.08000 771.000
16.12000 724.000
16.16000 742.000
16.20000 717.000
16.24000 671.000
16.28000 701.000
16.32000 684.000
16.36000 704.000
16.40000 698.000
16.44000 725.000
16.48000 727.000
16.52000 671.000
16.56000 668.000
16.60000 654.000
16.64000 711.000
16.68000 676.000
16.72000 671.000
16.76000 714.000
16.80000 690.000
16.84000 665.000
16.88000 711.000
16.92000 665.000
16.96000 715.000
17.00000 690.000
17.04000 725.000
17.08000 688.000
17.12000 682.000
17.16000 699.000
17.20000 691.000
17.24000 675.000
17.28000 664.000
17.32000 688.000
17.36000 644.000
17.40000 661.000
17.44000 666.000
17.48000 680.000
17.52000 656.000
17.56000 729.000
17.60000 697.000
17.64000 697.000
17.68000 700.000
17.72000 700.000
17.76000 693.000
17.80000 742.000
17.84000 694.000
17.88000 707.000
17.92000 707.000
17.96000 715.000
18.00000 645.000
18.04000 687.000
18.08000 697.000
18.12000 699.000
18.16000 702.000
18.20000 720.000
18.24000 718.000
18.28000 753.000
18.32000 750.000
18.36000 734.000
18.40000 694.000
18.44000 723.000
18.48000 748.000
18.52000 742.000
18.56000 733.000
18.60000 761.000
18.64000 733.000
18.68000 738.000
18.72000 729.000
18.76000 788.000
18.80000 749.000
18.84000 756.000
18.88000 780.000
18.92000 765.000
18.96000 773.000
19.00000 811.000
19.04000 754.000
19.08000 782.000
19.12000 820.000
19.16000 796.000
19.20000 806.000
19.24000 755.000
19.28000 771.000
19.32000 790.000
19.36000 805.000
19.40000 830.000
19.44000 842.000
19.48000 856.000
19.52000 821.000
19.56000 954.000
19.60000 942.000
19.64000 1019.000
19.68000 1148.000
19.72000 1246.000
19.76000 1339.000
19.80000 1310.000
19.84000 1225.000
19.88000 1077.000
19.92000 988.000
19.96000 962.000
20.00000 935.000
20.04000 842.000
20.08000 833.000
20.12000 901.000
20.16000 844.000
20.20000 845.000
20.24000 900.000
20.28000 899.000
20.32000 920.000
20.36000 822.000
20.40000 868.000
20.44000 883.000
20.48000 861.000
20.52000 872.000
20.56000 896.000
20.60000 890.000
20.64000 885.000
20.68000 901.000
20.72000 909.000
20.76000 937.000
20.80000 892.000
20.84000 903.000
20.88000 910.000
20.92000 925.000
20.96000 863.000
21.00000 912.000
21.04000 938.000
21.08000 910.000
21.12000 928.000
21.16000 920.000
21.20000 902.000
21.24000 903.000
21.28000 933.000
21.32000 876.000
21.36000 940.000
21.40000 921.000
21.44000 916.000
21.48000 869.000
21.52000 955.000
21.56000 943.000
21.60000 987.000
21.64000 971.000
21.68000 926.000
21.72000 942.000
21.76000 947.000
21.80000 957.000
21.84000 963.000
21.88000 959.000
21.92000 988.000
21.96000 942.000
22.00000 972.000
22.04000 958.000
22.08000 952.000
22.12000 960.000
22.16000 950.000
22.20000 992.000
22.24000 975.000
22.28000 955.000
22.32000 964.000
22.36000 986.000
22.40000 997.000
22.44000 1043.000
22.48000 991.000
22.52000 981.000
22.56000 944.000
22.60000 1008.000
22.64000 962.000
22.68000 1043.000
22.72000 1021.000
22.76000 1004.000
22.80000 1022.000
22.84000 1033.000
22.88000 1010.000
22.92000 1032.000
22.96000 925.000
23.00000 1057.000
23.04000 995.000
23.08000 1078.000
23.12000 1077.000
23.16000 1024.000
23.20000 1041.000
23.24000 1010.000
23.28000 1025.000
23.32000 1010.000
23.36000 1035.000
23.40000 1056.000
23.44000 1001.000
23.48000 953.000
23.52000 1020.000
23.56000 1064.000
23.60000 1022.000
23.64000 1026.000
23.68000 1081.000
23.72000 1056.000
23.76000 1085.000
23.80000 1007.000
23.84000 1061.000
23.88000 1049.000
23.92000 1008.000
23.96000 1042.000
24.00000 993.000
24.04000 1028.000
24.08000 1037.000
24.12000 1001.000
24.16000 1045.000
24.20000 1016.000
24.24000 969.000
24.28000 1046.000
24.32000 1055.000
24.36000 1035.000
24.40000 1062.000
24.44000 1009.000
24.48000 1048.000
24.52000 1045.000
24.56000 1054.000
24.60000 1018.000
24.64000 1101.000
24.68000 1060.000
24.72000 1037.000
24.76000 1113.000
24.80000 1086.000
24.84000 1075.000
24.88000 1055.000
24.92000 1073.000
24.96000 1089.000
25.00000 1068.000
25.04000 1068.000
25.08000 1021.000
25.12000 1076.000
25.16000 1065.000
25.20000 1027.000
25.24000 1092.000
25.28000 1061.000
25.32000 1053.000
25.36000 1076.000
25.40000 1045.000
25.44000 1139.000
25.48000 1122.000
25.52000 1156.000
25.56000 1223.000
25.60000 1321.000
25.64000 1329.000
25.68000 1440.000
25.72000 1652.000
25.76000 1581.000
25.80000 1627.000
25.84000 1560.000
25.88000 1530.000
25.92000 1391.000
25.96000 1310.000
26.00000 1173.000
26.04000 1180.000
26.08000 1075.000
26.12000 1048.000
26.16000 1080.000
26.20000 1065.000
26.24000 1039.000
26.28000 1043.000
26.32000 1090.000
26.36000 1026.000
26.40000 1089.000
26.44000 1061.000
26.48000 1029.000
26.52000 1045.000
26.56000 1066.000
26.60000 1100.000
26.64000 1035.000
26.68000 1123.000
26.72000 1099.000
26.76000 1067.000
26.80000 1080.000
26.84000 1093.000
26.88000 1112.000
26.92000 1136.000
26.96000 1083.000
27.00000 1164.000
27.04000 1094.000
27.08000 1112.000
27.12000 1189.000
27.16000 1088.000
27.20000 1173.000
27.24000 1243.000
27.28000 1214.000
27.32000 1221.000
27.36000 1215.000
27.40000 1275.000
27.44000 1459.000
27.48000 1472.000
27.52000 1505.000
27.56000 1420.000
27.60000 1511.000
27.64000 1397.000
27.68000 1490.000
27.72000 1548.000
27.76000 1523.000
27.80000 1620.000
27.84000 1620.000
27.88000 1756.000
27.92000 1765.000
27.96000 1830.000
28.00000 1886.000
28.04000 1922.000
28.08000 2052.000
28.12000 2110.000
28.16000 2286.000
28.20000 2369.000
28.24000 2407.000
28.28000 2775.000
28.32000 3060.000
28.36000 3697.000
28.40000 4702.000
28.44000 6362.000
28.48000 9194.000
28.52000 13977.000
28.56000 22937.000
28.60000 38443.000
28.64000 65924.000
28.68000 105297.000
28.72000 127402.000
28.76000 112393.000
28.80000 79638.000
28.84000 47854.000
28.88000 25902.000
28.92000 14865.000
28.96000 9069.000
29.00000 6054.000
29.04000 4232.000
29.08000 3517.000
29.12000 3050.000
29.16000 2763.000
29.20000 2607.000
29.24000 2529.000
29.28000 2424.000
29.32000 2436.000
29.36000 2342.000
29.40000 2532.000
29.44000 2678.000
29.48000 2966.000
29.52000 3408.000
29.56000 3893.000
29.60000 4708.000
29.64000 5860.000
29.68000 7318.000
29.72000 9605.000
29.76000 11354.000
29.80000 12848.000
29.84000 12665.000
29.88000 11313.000
29.92000 9497.000
29.96000 7394.000
30.00000 5468.000
30.04000 4276.000
30.08000 3323.000
30.12000 2680.000
30.16000 2318.000
30.20000 2042.000
30.24000 1872.000
30.28000 1699.000
30.32000 1584.000
30.36000 1519.000
30.40000 1451.000
30.44000 1352.000
30.48000 1373.000
30.52000 1268.000
30.56000 1247.000
30.60000 1144.000
30.64000 1165.000
30.68000 1123.000
30.72000 1139.000
30.76000 1093.000
30.80000 1066.000
30.84000 1028.000
30.88000 1046.000
30.92000 1031.000
30.96000 1037.000
31.00000 973.000
31.04000 1004.000
31.08000 1008.000
31.12000 1000.000
31.16000 961.000
31.20000 901.000
31.24000 961.000
31.28000 885.000
31.32000 879.000
31.36000 924.000
31.40000 903.000
31.44000 862.000
31.48000 899.000
31.52000 917.000
31.56000 882.000
31.60000 879.000
31.64000 867.000
31.68000 879.000
31.72000 853.000
31.76000 865.000
31.80000 854.000
31.84000 837.000
31.88000 873.000
31.92000 837.000
31.96000 849.000
32.00000 839.000
32.04000 827.000
32.08000 810.000
32.12000 867.000
32.16000 824.000
32.20000 865.000
32.24000 865.000
32.28000 884.000
32.32000 852.000
32.36000 766.000
32.40000 795.000
32.44000 840.000
32.48000 813.000
32.52000 793.000
32.56000 766.000
32.60000 733.000
32.64000 801.000
32.68000 775.000
32.72000 728.000
32.76000 778.000
32.80000 755.000
32.84000 782.000
32.88000 813.000
32.92000 792.000
32.96000 728.000
33.00000 735.000
33.04000 746.000
33.08000 776.000
33.12000 722.000
33.16000 774.000
33.20000 745.000
33.24000 756.000
33.28000 721.000
33.32000 732.000
33.36000 778.000
33.40000 712.000
33.44000 730.000
33.48000 760.000
33.52000 731.000
33.56000 683.000
33.60000 722.000
33.64000 689.000
33.68000 654.000
33.72000 674.000
33.76000 705.000
33.80000 672.000
33.84000 706.000
33.88000 625.000
33.92000 678.000
33.96000 653.000
34.00000 684.000
34.04000 663.000
34.08000 655.000
34.12000 636.000
34.16000 646.000
34.20000 623.000
34.24000 668.000
34.28000 697.000
34.32000 629.000
34.36000 617.000
34.40000 642.000
34.44000 646.000
34.48000 608.000
34.52000 735.000
34.56000 626.000
34.60000 605.000
34.64000 659.000
34.68000 658.000
34.72000 653.000
34.76000 587.000
34.80000 626.000
34.84000 615.000
34.88000 579.000
34.92000 612.000
34.96000 585.000
35.00000 591.000
35.04000 564.000
35.08000 608.000
35.12000 600.000
35.16000 612.000
35.20000 606.000
35.24000 612.000
35.28000 595.000
35.32000 609.000
35.36000 599.000
35.40000 611.000
35.44000 586.000
35.48000 545.000
35.52000 566.000
35.56000 551.000
35.60000 566.000
35.64000 615.000
35.68000 622.000
35.72000 618.000
35.76000 573.000
35.80000 574.000
35.84000 561.000
35.88000 538.000
35.92000 563.000
35.96000 543.000
36.00000 571.000
36.04000 562.000
36.08000 546.000
36.12000 514.000
36.16000 555.000
36.20000 531.000
36.24000 572.000
36.28000 533.000
36.32000 536.000
36.36000 553.000
36.40000 502.000
36.44000 508.000
36.48000 492.000
36.52000 526.000
36.56000 511.000
36.60000 556.000
36.64000 535.000
36.68000 500.000
36.72000 562.000
36.76000 509.000
36.80000 544.000
36.84000 499.000
36.88000 505.000
36.92000 522.000
36.96000 511.000
37.00000 499.000
37.04000 522.000
37.08000 492.000
37.12000 482.000
37.16000 494.000
37.20000 444.000
37.24000 530.000
37.28000 490.000
37.32000 504.000
37.36000 489.000
37.40000 490.000
37.44000 510.000
37.48000 513.000
37.52000 493.000
37.56000 473.000
37.60000 430.000
37.64000 493.000
37.68000 501.000
37.72000 478.000
37.76000 477.000
37.80000 499.000
37.84000 487.000
37.88000 448.000
37.92000 450.000
37.96000 488.000
38.00000 469.000
38.04000 453.000
38.08000 487.000
38.12000 461.000
38.16000 482.000
38.20000 458.000
38.24000 494.000
38.28000 452.000
38.32000 444.000
38.36000 444.000
38.40000 432.000
38.44000 491.000
38.48000 451.000
38.52000 437.000
38.56000 466.000
38.60000 440.000
38.64000 437.000
38.68000 442.000
38.72000 471.000
38.76000 438.000
38.80000 486.000
38.84000 461.000
38.88000 464.000
38.92000 487.000
38.96000 489.000
39.00000 480.000
39.04000 504.000
39.08000 470.000
39.12000 440.000
39.16000 451.000
39.20000 486.000
39.24000 488.000
39.28000 458.000
39.32000 425.000
39.36000 444.000
39.40000 445.000
39.44000 433.000
39.48000 410.000
39.52000 480.000
39.56000 467.000
39.60000 443.000
39.64000 410.000
39.68000 427.000
39.72000 447.000
39.76000 449.000
39.80000 441.000
39.84000 454.000
39.88000 444.000
39.92000 455.000
39.96000 480.000
40.00000 454.000
40.04000 432.000
40.08000 453.000
40.12000 452.000
40.16000 448.000
40.20000 418.000
40.24000 442.000
40.28000 433.000
40.32000 469.000
40.36000 450.000
40.40000 445.000
40.44000 441.000
40.48000 430.000
40.52000 456.000
40.56000 468.000
40.60000 445.000
40.64000 443.000
40.68000 447.000
40.72000 432.000
40.76000 469.000
40.80000 499.000
40.84000 450.000
40.88000 515.000
40.92000 551.000
40.96000 588.000
41.00000 632.000
41.04000 570.000
41.08000 580.000
41.12000 557.000
41.16000 519.000
41.20000 478.000
41.24000 459.000
41.28000 462.000
41.32000 451.000
41.36000 447.000
41.40000 449.000
41.44000 479.000
41.48000 467.000
41.52000 435.000
41.56000 445.000
41.60000 474.000
41.64000 479.000
41.68000 455.000
41.72000 472.000
41.76000 482.000
41.80000 470.000
41.84000 488.000
41.88000 456.000
41.92000 449.000
41.96000 456.000
42.00000 459.000
42.04000 479.000
42.08000 469.000
42.12000 456.000
42.16000 468.000
42.20000 453.000
42.24000 437.000
42.28000 472.000
42.32000 492.000
42.36000 497.000
42.40000 489.000
42.44000 494.000
42.48000 469.000
42.52000 474.000
42.56000 507.000
42.60000 504.000
42.64000 516.000
42.68000 526.000
42.72000 510.000
42.76000 479.000
42.80000 485.000
42.84000 448.000
42.88000 498.000
42.92000 520.000
42.96000 457.000
43.00000 531.000
43.04000 485.000
43.08000 513.000
43.12000 482.000
43.16000 481.000
43.20000 542.000
43.24000 511.000
43.28000 560.000
43.32000 611.000
43.36000 662.000
43.40000 730.000
43.44000 843.000
43.48000 1094.000
43.52000 1580.000
43.56000 2216.000
43.60000 2711.000
43.64000 2579.000
43.68000 2189.000
43.72000 1929.000
43.76000 1443.000
43.80000 1090.000
43.84000 772.000
43.88000 667.000
43.92000 627.000
43.96000 593.000
44.00000 537.000
44.04000 436.000
44.08000 513.000
44.12000 454.000
44.16000 486.000
44.20000 448.000
44.24000 509.000
44.28000 490.000
44.32000 440.000
44.36000 452.000
44.40000 449.000
44.44000 451.000
44.48000 451.000
44.52000 432.000
44.56000 440.000
44.60000 496.000
44.64000 469.000
44.68000 428.000
44.72000 446.000
44.76000 428.000
44.80000 452.000
44.84000 454.000
44.88000 409.000
44.92000 493.000
44.96000 462.000
45.00000 526.000
45.04000 469.000
45.08000 451.000
45.12000 491.000
45.16000 545.000
45.20000 532.000
45.24000 587.000
45.28000 625.000
45.32000 628.000
45.36000 654.000
45.40000 614.000
45.44000 535.000
45.48000 582.000
45.52000 534.000
45.56000 501.000
45.60000 531.000
45.64000 470.000
45.68000 444.000
45.72000 451.000
45.76000 444.000
45.80000 410.000
45.84000 441.000
45.88000 441.000
45.92000 444.000
45.96000 427.000
46.00000 422.000
46.04000 416.000
46.08000 462.000
46.12000 432.000
46.16000 418.000
46.20000 428.000
46.24000 422.000
46.28000 400.000
46.32000 424.000
46.36000 430.000
46.40000 396.000
46.44000 409.000
46.48000 439.000
46.52000 407.000
46.56000 453.000
46.60000 453.000
46.64000 391.000
46.68000 439.000
46.72000 407.000
46.76000 412.000
46.80000 407.000
46.84000 387.000
46.88000 404.000
46.92000 428.000
46.96000 432.000
47.00000 434.000
47.04000 391.000
47.08000 441.000
47.12000 381.000
47.16000 377.000
47.20000 406.000
47.24000 415.000
47.28000 445.000
47.32000 380.000
47.36000 374.000
47.40000 407.000
47.44000 395.000
47.48000 431.000
47.52000 391.000
47.56000 434.000
47.60000 419.000
47.64000 428.000
47.68000 373.000
47.72000 381.000
47.76000 398.000
47.80000 429.000
47.84000 357.000
47.88000 376.000
47.92000 397.000
47.96000 412.000
48.00000 400.000
48.04000 382.000
48.08000 386.000
48.12000 386.000
48.16000 376.000
48.20000 366.000
48.24000 406.000
48.28000 378.000
48.32000 381.000
48.36000 395.000
48.40000 385.000
48.44000 408.000
48.48000 374.000
48.52000 397.000
48.56000 381.000
48.60000 414.000
48.64000 370.000
48.68000 375.000
48.72000 365.000
48.76000 396.000
48.80000 381.000
48.84000 373.000
48.88000 368.000
48.92000 391.000
48.96000 391.000
49.00000 381.000
49.04000 398.000
49.08000 357.000
49.12000 372.000
49.16000 364.000
49.20000 394.000
49.24000 382.000
49.28000 341.000
49.32000 406.000
49.36000 394.000
49.40000 399.000
49.44000 355.000
49.48000 346.000
49.52000 360.000
49.56000 372.000
49.60000 371.000
49.64000 369.000
49.68000 384.000
49.72000 397.000
49.76000 410.000
49.80000 330.000
49.84000 345.000
49.88000 408.000
49.92000 395.000
49.96000 383.000
50.00000 399.000
50.04000 392.000
50.08000 394.000
50.12000 396.000
50.16000 412.000
50.20000 373.000
50.24000 361.000
50.28000 375.000
50.32000 374.000
50.36000 388.000
50.40000 367.000
50.44000 375.000
50.48000 395.000
50.52000 426.000
50.56000 402.000
50.60000 426.000
50.64000 386.000
50.68000 393.000
50.72000 405.000
50.76000 398.000
50.80000 417.000
50.84000 371.000
50.88000 382.000
50.92000 394.000
50.96000 379.000
51.00000 386.000
51.04000 352.000
51.08000 380.000
51.12000 393.000
51.16000 355.000
51.20000 358.000
51.24000 383.000
51.28000 344.000
51.32000 371.000
51.36000 379.000
51.40000 378.000
51.44000 348.000
51.48000 351.000
51.52000 373.000
51.56000 391.000
51.60000 371.000
51.64000 380.000
51.68000 411.000
51.72000 336.000
51.76000 371.000
51.80000 371.000
51.84000 373.000
51.88000 396.000
51.92000 376.000
51.96000 335.000
52.00000 397.000
52.04000 421.000
52.08000 385.000
52.12000 361.000
52.16000 347.000
52.20000 379.000
52.24000 384.000
52.28000 342.000
52.32000 388.000
52.36000 363.000
52.40000 356.000
52.44000 379.000
52.48000 373.000
52.52000 355.000
52.56000 437.000
52.60000 386.000
52.64000 316.000
52.68000 376.000
52.72000 393.000
52.76000 391.000
52.80000 359.000
52.84000 355.000
52.88000 407.000
52.92000 381.000
52.96000 430.000
53.00000 389.000
53.04000 407.000
53.08000 385.000
53.12000 437.000
53.16000 384.000
53.20000 337.000
53.24000 364.000
53.28000 360.000
53.32000 358.000
53.36000 362.000
53.40000 382.000
53.44000 375.000
53.48000 362.000
53.52000 399.000
53.56000 375.000
53.60000 409.000
53.64000 390.000
53.68000 372.000
53.72000 366.000
53.76000 352.000
53.80000 385.000
53.84000 380.000
53.88000 399.000
53.92000 408.000
53.96000 401.000
54.00000 351.000
54.04000 324.000
54.08000 359.000
54.12000 375.000
54.16000 319.000
54.20000 384.000
54.24000 342.000
54.28000 349.000
54.32000 395.000
54.36000 369.000
54.40000 371.000
54.44000 361.000
54.48000 371.000
54.52000 374.000
54.56000 372.000
54.60000 372.000
54.64000 356.000
54.68000 344.000
54.72000 380.000
54.76000 347.000
54.80000 397.000
54.84000 361.000
54.88000 395.000
54.92000 342.000
54.96000 358.000
55.00000 406.000
55.04000 374.000
55.08000 359.000
55.12000 331.000
55.16000 386.000
55.20000 378.000
55.24000 376.000
55.28000 375.000
55.32000 364.000
55.36000 373.000
55.40000 384.000
55.44000 378.000
55.48000 338.000
55.52000 384.000
55.56000 378.000
55.60000 383.000
55.64000 370.000
55.68000 378.000
55.72000 403.000
55.76000 384.000
55.80000 376.000
55.84000 359.000
55.88000 381.000
55.92000 379.000
55.96000 349.000
56.00000 341.000
56.04000 378.000
56.08000 385.000
56.12000 393.000
56.16000 390.000
56.20000 332.000
56.24000 359.000
56.28000 369.000
56.32000 356.000
56.36000 367.000
56.40000 381.000
56.44000 364.000
56.48000 399.000
56.52000 403.000
56.56000 385.000
56.60000 397.000
56.64000 402.000
56.68000 378.000
56.72000 404.000
56.76000 393.000
56.80000 392.000
56.84000 386.000
56.88000 381.000
56.92000 354.000
56.96000 398.000
57.00000 353.000
57.04000 367.000
57.08000 376.000
57.12000 358.000
57.16000 438.000
57.20000 387.000
57.24000 365.000
57.28000 406.000
57.32000 388.000
57.36000 404.000
57.40000 397.000
57.44000 339.000
57.48000 353.000
57.52000 418.000
57.56000 398.000
57.60000 397.000
57.64000 377.000
57.68000 380.000
57.72000 379.000
57.76000 404.000
57.80000 408.000
57.84000 383.000
57.88000 389.000
57.92000 382.000
57.96000 372.000
58.00000 378.000
58.04000 420.000
58.08000 409.000
58.12000 404.000
58.16000 398.000
58.20000 426.000
58.24000 375.000
58.28000 377.000
58.32000 421.000
58.36000 396.000
58.40000 390.000
58.44000 423.000
58.48000 399.000
58.52000 397.000
58.56000 402.000
58.60000 438.000
58.64000 457.000
58.68000 455.000
58.72000 432.000
58.76000 405.000
58.80000 410.000
58.84000 465.000
58.88000 503.000
58.92000 472.000
58.96000 544.000
59.00000 566.000
59.04000 596.000
59.08000 723.000
59.12000 759.000
59.16000 1053.000
59.20000 1464.000
59.24000 2216.000
59.28000 3203.000
59.32000 3584.000
59.36000 3194.000
59.40000 2694.000
59.44000 2442.000
59.48000 2269.000
59.52000 1782.000
59.56000 1344.000
59.60000 956.000
59.64000 829.000
59.68000 643.000
59.72000 570.000
59.76000 546.000
59.80000 472.000
59.84000 530.000
59.88000 446.000
59.92000 456.000
59.96000 450.000
60.00000 448.000
60.04000 417.000
60.08000 414.000
60.12000 472.000
60.16000 444.000
60.20000 427.000
60.24000 429.000
60.28000 424.000
60.32000 403.000
60.36000 440.000
60.40000 443.000
60.44000 431.000
60.48000 374.000
60.52000 429.000
60.56000 418.000
60.60000 393.000
60.64000 420.000
60.68000 426.000
60.72000 384.000
60.76000 402.000
60.80000 388.000
60.84000 425.000
60.88000 420.000
60.92000 382.000
60.96000 405.000
61.00000 437.000
61.04000 397.000
61.08000 405.000
61.12000 401.000
61.16000 421.000
61.20000 401.000
61.24000 455.000
61.28000 471.000
61.32000 464.000
61.36000 450.000
61.40000 515.000
61.44000 474.000
61.48000 481.000
61.52000 500.000
61.56000 503.000
61.60000 521.000
61.64000 475.000
61.68000 525.000
61.72000 543.000
61.76000 581.000
61.80000 555.000
61.84000 545.000
61.88000 538.000
61.92000 515.000
61.96000 531.000
62.00000 479.000
62.04000 463.000
62.08000 450.000
62.12000 458.000
62.16000 452.000
62.20000 470.000
62.24000 398.000
62.28000 393.000
62.32000 401.000
62.36000 410.000
62.40000 412.000
62.44000 457.000
62.48000 413.000
62.52000 416.000
62.56000 368.000
62.60000 382.000
62.64000 400.000
62.68000 386.000
62.72000 365.000
62.76000 370.000
62.80000 425.000
62.84000 410.000
62.88000 393.000
62.92000 369.000
62.96000 374.000
63.00000 382.000
63.04000 342.000
63.08000 378.000
63.12000 372.000
63.16000 363.000
63.20000 375.000
63.24000 353.000
63.28000 384.000
63.32000 374.000
63.36000 399.000
63.40000 393.000
63.44000 394.000
63.48000 387.000
63.52000 344.000
63.56000 372.000
63.60000 383.000
63.64000 376.000
63.68000 377.000
63.72000 357.000
63.76000 376.000
63.80000 375.000
63.84000 359.000
63.88000 364.000
63.92000 324.000
63.96000 350.000
64.00000 345.000
64.04000 377.000
64.08000 353.000
64.12000 391.000
64.16000 350.000
64.20000 379.000
64.24000 350.000
64.28000 387.000
64.32000 404.000
64.36000 361.000
64.40000 362.000
64.44000 382.000
64.48000 377.000
64.52000 358.000
64.56000 366.000
64.60000 360.000
64.64000 373.000
64.68000 381.000
64.72000 354.000
64.76000 335.000
64.80000 339.000
64.84000 363.000
64.88000 353.000
64.92000 355.000
64.96000 366.000
65.00000 358.000
65.04000 376.000
65.08000 373.000
65.12000 332.000
65.16000 341.000
65.20000 342.000
65.24000 375.000
65.28000 365.000
65.32000 366.000
65.36000 373.000
65.40000 327.000
65.44000 353.000
65.48000 367.000
65.52000 329.000
65.56000 359.000
65.60000 328.000
65.64000 355.000
65.68000 349.000
65.72000 377.000
65.76000 352.000
65.80000 352.000
65.84000 352.000
65.88000 352.000
65.92000 350.000
65.96000 334.000
66.00000 344.000
66.04000 365.000
66.08000 352.000
66.12000 323.000
66.16000 355.000
66.20000 353.000
66.24000 319.000
66.28000 310.000
66.32000 341.000
66.36000 355.000
66.40000 328.000
66.44000 343.000
66.48000 365.000
66.52000 371.000
66.56000 342.000
66.60000 313.000
66.64000 315.000
66.68000 319.000
66.72000 361.000
66.76000 357.000
66.80000 335.000
66.84000 355.000
66.88000 337.000
66.92000 328.000
66.96000 312.000
67.00000 309.000
67.04000 323.000
67.08000 365.000
67.12000 292.000
67.16000 382.000
67.20000 377.000
67.24000 345.000
67.28000 329.000
67.32000 333.000
67.36000 352.000
67.40000 324.000
67.44000 348.000
67.48000 358.000
67.52000 327.000
67.56000 319.000
67.60000 335.000
67.64000 306.000
67.68000 370.000
67.72000 335.000
67.76000 323.000
67.80000 344.000
67.84000 367.000
67.88000 314.000
67.92000 356.000
67.96000 316.000
68.00000 349.000
68.04000 337.000
68.08000 332.000
68.12000 310.000
68.16000 327.000
68.20000 333.000
68.24000 329.000
68.28000 347.000
68.32000 333.000
68.36000 309.000
68.40000 349.000
68.44000 354.000
68.48000 315.000
68.52000 339.000
68.56000 336.000
68.60000 306.000
68.64000 339.000
68.68000 307.000
68.72000 337.000
68.76000 301.000
68.80000 310.000
68.84000 354.000
68.88000 346.000
68.92000 343.000
68.96000 317.000
69.00000 343.000
69.04000 320.000
69.08000 307.000
69.12000 323.000
69.16000 308.000
69.20000 306.000
69.24000 332.000
69.28000 311.000
69.32000 318.000
69.36000 321.000
69.40000 299.000
69.44000 333.000
69.48000 332.000
69.52000 294.000
69.56000 286.000
69.60000 310.000
69.64000 298.000
69.68000 323.000
69.72000 280.000
69.76000 304.000
69.80000 278.000
69.84000 304.000
69.88000 321.000
69.92000 291.000
