5.00000 1439.000
5.04000 1457.000
5.08000 1444.000
5.12000 1379.000
5.16000 1394.000
5.20000 1400.000
5.24000 1409.000
5.28000 1347.000
5.32000 1337.000
5.36000 1327.000
5.40000 1273.000
5.44000 1304.000
5.48000 1264.000
5.52000 1264.000
5.56000 1272.000
5.60000 1309.000
5.64000 1264.000
5.68000 1284.000
5.72000 1239.000
5.76000 1212.000
5.80000 1212.000
5.84000 1241.000
5.88000 1152.000
5.92000 1210.000
5.96000 1180.000
6.00000 1190.000
6.04000 1124.000
6.08000 1181.000
6.12000 1102.000
6.16000 1159.000
6.20000 1161.000
6.24000 1122.000
6.28000 1097.000
6.32000 1127.000
6.36000 1121.000
6.40000 1078.000
6.44000 1122.000
6.48000 1082.000
6.52000 1146.000
6.56000 1077.000
6.60000 1028.000
6.64000 1050.000
6.68000 1121.000
6.72000 1077.000
6.76000 996.000
6.80000 983.000
6.84000 1030.000
6.88000 999.000
6.92000 1001.000
6.96000 1043.000
7.00000 954.000
7.04000 1006.000
7.08000 995.000
7.12000 1031.000
7.16000 993.000
7.20000 934.000
7.24000 959.000
7.28000 928.000
7.32000 946.000
7.36000 929.000
7.40000 925.000
7.44000 937.000
7.48000 942.000
7.52000 901.000
7.56000 892.000
7.60000 884.000
7.64000 870.000
7.68000 887.000
7.72000 923.000
7.76000 903.000
7.80000 888.000
7.84000 847.000
7.88000 839.000
7.92000 864.000
7.96000 861.000
8.00000 848.000
8.04000 923.000
8.08000 894.000
8.12000 846.000
8.16000 831.000
8.20000 858.000
8.24000 831.000
8.28000 814.000
8.32000 866.000
8.36000 774.000
8.40000 766.000
8.44000 804.000
8.48000 816.000
8.52000 781.000
8.56000 826.000
8.60000 773.000
8.64000 830.000
8.68000 800.000
8.72000 768.000
8.76000 774.000
8.80000 823.000
8.84000 786.000
8.88000 800.000
8.92000 782.000
8.96000 771.000
9.00000 758.000
9.04000 722.000
9.08000 761.000
9.12000 789.000
9.16000 780.000
9.20000 753.000
9.24000 761.000
9.28000 706.000
9.32000 692.000
9.36000 726.000
9.40000 759.000
9.44000 705.000
9.48000 725.000
9.52000 746.000
9.56000 819.000
9.60000 778.000
9.64000 758.000
9.68000 759.000
9.72000 723.000
9.76000 701.000
9.80000 703.000
9.84000 696.000
9.88000 729.000
9.92000 663.000
9.96000 656.000
10.00000 710.000
10.04000 750.000
10.08000 715.000
10.12000 677.000
10.16000 686.000
10.20000 671.000
10.24000 697.000
10.28000 706.000
10.32000 652.000
10.36000 626.000
10.40000 687.000
10.44000 701.000
10.48000 621.000
10.52000 645.000
10.56000 668.000
10.60000 668.000
10.64000 670.000
10.68000 629.000
10.72000 634.000
10.76000 647.000
10.80000 670.000
10.84000 586.000
10.88000 596.000
10.92000 643.000
10.96000 664.000
11.00000 634.000
11.04000 608.000
11.08000 636.000
11.12000 628.000
11.16000 639.000
11.20000 629.000
11.24000 644.000
11.28000 599.000
11.32000 627.000
11.36000 642.000
11.40000 631.000
11.44000 632.000
11.48000 653.000
11.52000 642.000
11.56000 605.000
11.60000 587.000
11.64000 606.000
11.68000 585.000
11.72000 613.000
11.76000 617.000
11.80000 644.000
11.84000 610.000
11.88000 613.000
11.92000 640.000
11.96000 618.000
12.00000 600.000
12.04000 648.000
12.08000 625.000
12.12000 582.000
12.16000 622.000
12.20000 584.000
12.24000 625.000
12.28000 645.000
12.32000 623.000
12.36000 619.000
12.40000 635.000
12.44000 642.000
12.48000 660.000
12.52000 654.000
12.56000 661.000
12.60000 675.000
12.64000 734.000
12.68000 707.000
12.72000 797.000
12.76000 858.000
12.80000 917.000
12.84000 931.000
12.88000 1147.000
12.92000 1307.000
12.96000 1224.000
13.00000 975.000
13.04000 825.000
13.08000 766.000
13.12000 754.000
13.16000 783.000
13.20000 740.000
13.24000 755.000
13.28000 805.000
13.32000 764.000
13.36000 843.000
13.40000 859.000
13.44000 893.000
13.48000 929.000
13.52000 967.000
13.56000 1108.000
13.60000 1324.000
13.64000 1600.000
13.68000 1959.000
13.72000 2103.000
13.76000 1985.000
13.80000 2170.000
13.84000 2369.000
13.88000 2765.000
13.92000 3676.000
13.96000 4997.000
14.00000 7419.000
14.04000 10914.000
14.08000 15864.000
14.12000 24935.000
14.16000 43213.000
14.20000 81709.000
14.24000 160242.500
14.28000 304666.000
14.32000 379887.600
14.36000 287353.800
14.40000 149043.200
14.44000 70230.000
14.48000 37268.000
14.52000 19789.000
14.56000 10648.000
14.60000 6186.000
14.64000 4435.000
14.68000 3834.000
14.72000 3415.000
14.76000 3594.000
14.80000 3923.000
14.84000 4211.000
14.88000 4083.000
14.92000 3403.000
14.96000 2611.000
15.00000 2169.000
15.04000 1739.000
15.08000 1437.000
15.12000 1224.000
15.16000 1157.000
15.20000 1038.000
15.24000 910.000
15.28000 873.000
15.32000 954.000
15.36000 785.000
15.40000 815.000
15.44000 742.000
15.48000 707.000
15.52000 789.000
15.56000 702.000
15.60000 664.000
15.64000 723.000
15.68000 742.000
15.72000 689.000
15.76000 681.000
15.80000 653.000
15.84000 648.000
15.88000 640.000
15.92000 671.000
15.96000 605.000
16.00000 618.000
16.04000 647.000
16.08000 624.000
16.12000 581.000
16.16000 661.000
16.20000 637.000
16.24000 680.000
16.28000 674.000
16.32000 644.000
16.36000 608.000
16.40000 599.000
16.44000 639.000
16.48000 662.000
16.52000 647.000
16.56000 676.000
16.60000 589.000
16.64000 590.000
16.68000 651.000
16.72000 612.000
16.76000 589.000
16.80000 625.000
16.84000 673.000
16.88000 630.000
16.92000 629.000
16.96000 640.000
17.00000 615.000
17.04000 640.000
17.08000 672.000
17.12000 637.000
17.16000 637.000
17.20000 656.000
17.24000 689.000
17.28000 643.000
17.32000 652.000
17.36000 615.000
17.40000 595.000
17.44000 698.000
17.48000 691.000
17.52000 674.000
17.56000 624.000
17.60000 665.000
17.64000 612.000
17.68000 637.000
17.72000 681.000
17.76000 647.000
17.80000 681.000
17.84000 649.000
17.88000 650.000
17.92000 681.000
17.96000 641.000
18.00000 651.000
18.04000 688.000
18.08000 664.000
18.12000 680.000
18.16000 649.000
18.20000 664.000
18.24000 701.000
18.28000 700.000
18.32000 698.000
18.36000 655.000
18.40000 661.000
18.44000 672.000
18.48000 715.000
18.52000 694.000
18.56000 668.000
18.60000 693.000
18.64000 679.000
18.68000 705.000
18.72000 706.000
18.76000 695.000
18.80000 670.000
18.84000 700.000
18.88000 695.000
18.92000 725.000
18.96000 726.000
19.00000 729.000
19.04000 729.000
19.08000 697.000
19.12000 687.000
19.16000 728.000
19.20000 745.000
19.24000 725.000
19.28000 765.000
19.32000 764.000
19.36000 705.000
19.40000 727.000
19.44000 757.000
19.48000 750.000
19.52000 748.000
19.56000 758.000
19.60000 736.000
19.64000 757.000
19.68000 739.000
19.72000 775.000
19.76000 723.000
19.80000 723.000
19.84000 776.000
19.88000 772.000
19.92000 771.000
19.96000 766.000
20.00000 791.000
20.04000 773.000
20.08000 796.000
20.12000 821.000
20.16000 830.000
20.20000 825.000
20.24000 823.000
20.28000 797.000
20.32000 828.000
20.36000 832.000
20.40000 821.000
20.44000 777.000
20.48000 781.000
20.52000 823.000
20.56000 837.000
20.60000 865.000
20.64000 807.000
20.68000 820.000
20.72000 896.000
20.76000 845.000
20.80000 785.000
20.84000 836.000
20.88000 876.000
20.92000 825.000
20.96000 920.000
21.00000 878.000
21.04000 863.000
21.08000 870.000
21.12000 880.000
21.16000 854.000
21.20000 811.000
21.24000 873.000
21.28000 869.000
21.32000 879.000
21.36000 930.000
21.40000 880.000
21.44000 852.000
21.48000 845.000
21.52000 848.000
21.56000 871.000
21.60000 860.000
21.64000 942.000
21.68000 867.000
21.72000 972.000
21.76000 879.000
21.80000 959.000
21.84000 952.000
21.88000 915.000
21.92000 871.000
21.96000 921.000
22.00000 882.000
22.04000 942.000
22.08000 892.000
22.12000 941.000
22.16000 904.000
22.20000 882.000
22.24000 916.000
22.28000 943.000
22.32000 925.000
22.36000 931.000
22.40000 945.000
22.44000 935.000
22.48000 861.000
22.52000 915.000
22.56000 935.000
22.60000 937.000
22.64000 955.000
22.68000 979.000
22.72000 935.000
22.76000 986.000
22.80000 974.000
22.84000 952.000
22.88000 955.000
22.92000 982.000
22.96000 964.000
23.00000 937.000
23.04000 987.000
23.08000 944.000
23.12000 988.000
23.16000 975.000
23.20000 1033.000
23.24000 966.000
23.28000 1016.000
23.32000 1029.000
23.36000 1015.000
23.40000 1013.000
23.44000 982.000
23.48000 995.000
23.52000 900.000
23.56000 1010.000
23.60000 970.000
23.64000 1016.000
23.68000 985.000
23.72000 940.000
23.76000 979.000
23.80000 916.000
23.84000 944.000
23.88000 982.000
23.92000 1014.000
23.96000 956.000
24.00000 1013.000
24.04000 941.000
24.08000 962.000
24.12000 998.000
24.16000 946.000
24.20000 976.000
24.24000 966.000
24.28000 914.000
24.32000 988.000
24.36000 998.000
24.40000 952.000
24.44000 1051.000
24.48000 990.000
24.52000 1036.000
24.56000 935.000
24.60000 1087.000
24.64000 1094.000
24.68000 1115.000
24.72000 1127.000
24.76000 1240.000
24.80000 1279.000
24.84000 1270.000
24.88000 1204.000
24.92000 1216.000
24.96000 1002.000
25.00000 1009.000
25.04000 950.000
25.08000 1054.000
25.12000 988.000
25.16000 950.000
25.20000 1017.000
25.24000 967.000
25.28000 956.000
25.32000 996.000
25.36000 967.000
25.40000 997.000
25.44000 998.000
25.48000 1010.000
25.52000 968.000
25.56000 1004.000
25.60000 1031.000
25.64000 1055.000
25.68000 1104.000
25.72000 1125.000
25.76000 1248.000
25.80000 1298.000
25.84000 1416.000
25.88000 1662.000
25.92000 1543.000
25.96000 1329.000
26.00000 1227.000
26.04000 1078.000
26.08000 1054.000
26.12000 1015.000
26.16000 1045.000
26.20000 1022.000
26.24000 1026.000
26.28000 958.000
26.32000 1017.000
26.36000 1017.000
26.40000 1032.000
26.44000 1034.000
26.48000 1053.000
26.52000 1054.000
26.56000 994.000
26.60000 1003.000
26.64000 990.000
26.68000 1070.000
26.72000 1044.000
26.76000 1056.000
26.80000 1089.000
26.84000 1110.000
26.88000 1096.000
26.92000 1075.000
26.96000 1102.000
27.00000 1070.000
27.04000 1056.000
27.08000 1085.000
27.12000 1116.000
27.16000 1109.000
27.20000 1128.000
27.24000 1180.000
27.28000 1212.000
27.32000 1276.000
27.36000 1407.000
27.40000 1519.000
27.44000 1770.000
27.48000 1899.000
27.52000 1822.000
27.56000 1630.000
27.60000 1580.000
27.64000 1648.000
27.68000 1673.000
27.72000 1711.000
27.76000 1718.000
27.80000 1756.000
27.84000 1778.000
27.88000 1833.000
27.92000 1905.000
27.96000 2007.000
28.00000 2116.000
28.04000 2261.000
28.08000 2314.000
28.12000 2483.000
28.16000 2655.000
28.20000 2925.000
28.24000 3195.000
28.28000 3698.000
28.32000 4275.000
28.36000 5507.000
28.40000 7499.000
28.44000 11164.000
28.48000 16262.000
28.52000 25583.000
28.56000 44328.000
28.60000 80798.000
28.64000 158931.000
28.68000 268688.400
28.72000 335043.900
28.76000 290713.600
28.80000 201773.000
28.84000 115118.900
28.88000 58295.000
28.92000 30926.000
28.96000 17382.000
29.00000 10244.000
29.04000 6765.000
29.08000 4993.000
29.12000 4237.000
29.16000 3591.000
29.20000 3222.000
29.24000 2877.000
29.28000 2753.000
29.32000 2531.000
29.36000 2514.000
29.40000 2354.000
29.44000 2300.000
29.48000 2281.000
29.52000 2405.000
29.56000 2366.000
29.60000 2369.000
29.64000 2660.000
29.68000 2820.000
29.72000 3274.000
29.76000 3703.000
29.80000 4038.000
29.84000 4145.000
29.88000 3993.000
29.92000 3629.000
29.96000 3215.000
30.00000 2725.000
30.04000 2457.000
30.08000 2164.000
30.12000 1886.000
30.16000 1698.000
30.20000 1548.000
30.24000 1413.000
30.28000 1385.000
30.32000 1370.000
30.36000 1283.000
30.40000 1274.000
30.44000 1265.000
30.48000 1150.000
30.52000 1113.000
30.56000 1156.000
30.60000 1028.000
30.64000 1086.000
30.68000 1036.000
30.72000 958.000
30.76000 995.000
30.80000 967.000
30.84000 1012.000
30.88000 1022.000
30.92000 928.000
30.96000 945.000
31.00000 957.000
31.04000 896.000
31.08000 888.000
31.12000 898.000
31.16000 845.000
31.20000 870.000
31.24000 875.000
31.28000 842.000
31.32000 816.000
31.36000 811.000
31.40000 876.000
31.44000 854.000
31.48000 825.000
31.52000 858.000
31.56000 802.000
31.60000 846.000
31.64000 845.000
31.68000 867.000
31.72000 815.000
31.76000 836.000
31.80000 794.000
31.84000 749.000
31.88000 850.000
31.92000 814.000
31.96000 814.000
32.00000 838.000
32.04000 811.000
32.08000 898.000
32.12000 890.000
32.16000 958.000
32.20000 860.000
32.24000 861.000
32.28000 864.000
32.32000 753.000
32.36000 771.000
32.40000 755.000
32.44000 769.000
32.48000 701.000
32.52000 752.000
32.56000 762.000
32.60000 755.000
32.64000 745.000
32.68000 764.000
32.72000 747.000
32.76000 716.000
32.80000 759.000
32.84000 740.000
32.88000 706.000
32.92000 754.000
32.96000 704.000
33.00000 688.000
33.04000 688.000
33.08000 758.000
33.12000 751.000
33.16000 728.000
33.20000 689.000
33.24000 740.000
33.28000 667.000
33.32000 707.000
33.36000 711.000
33.40000 669.000
33.44000 722.000
33.48000 722.000
33.52000 709.000
33.56000 716.000
33.60000 682.000
33.64000 654.000
33.68000 658.000
33.72000 649.000
33.76000 655.000
33.80000 658.000
33.84000 702.000
33.88000 651.000
33.92000 679.000
33.96000 687.000
34.00000 718.000
34.04000 606.000
34.08000 622.000
34.12000 677.000
34.16000 635.000
34.20000 619.000
34.24000 561.000
34.28000 640.000
34.32000 683.000
34.36000 605.000
34.40000 641.000
34.44000 638.000
34.48000 685.000
34.52000 634.000
34.56000 641.000
34.60000 632.000
34.64000 631.000
34.68000 670.000
34.72000 598.000
34.76000 637.000
34.80000 595.000
34.84000 609.000
34.88000 565.000
34.92000 609.000
34.96000 629.000
35.00000 605.000
35.04000 618.000
35.08000 606.000
35.12000 584.000
35.16000 580.000
35.20000 572.000
35.24000 572.000
35.28000 599.000
35.32000 611.000
35.36000 580.000
35.40000 608.000
35.44000 572.000
35.48000 586.000
35.52000 537.000
35.56000 587.000
35.60000 576.000
35.64000 542.000
35.68000 564.000
35.72000 536.000
35.76000 544.000
35.80000 551.000
35.84000 549.000
35.88000 532.000
35.92000 558.000
35.96000 511.000
36.00000 530.000
36.04000 501.000
36.08000 551.000
36.12000 546.000
36.16000 595.000
36.20000 527.000
36.24000 519.000
36.28000 566.000
36.32000 531.000
36.36000 507.000
36.40000 550.000
36.44000 537.000
36.48000 537.000
36.52000 512.000
36.56000 516.000
36.60000 533.000
36.64000 518.000
36.68000 488.000
36.72000 503.000
36.76000 481.000
36.80000 529.000
36.84000 474.000
36.88000 507.000
36.92000 501.000
36.96000 526.000
37.00000 459.000
37.04000 508.000
37.08000 451.000
37.12000 500.000
37.16000 465.000
37.20000 498.000
37.24000 463.000
37.28000 477.000
37.32000 468.000
37.36000 524.000
37.40000 511.000
37.44000 446.000
37.48000 447.000
37.52000 491.000
37.56000 491.000
37.60000 466.000
37.64000 463.000
37.68000 489.000
37.72000 487.000
37.76000 444.000
37.80000 476.000
37.84000 467.000
37.88000 471.000
37.92000 435.000
37.96000 465.000
38.00000 479.000
38.04000 465.000
38.08000 470.000
38.12000 464.000
38.16000 486.000
38.20000 463.000
38.24000 461.000
38.28000 477.000
38.32000 439.000
38.36000 490.000
38.40000 468.000
38.44000 449.000
38.48000 517.000
38.52000 460.000
38.56000 458.000
38.60000 451.000
38.64000 464.000
38.68000 437.000
38.72000 463.000
38.76000 454.000
38.80000 432.000
38.84000 473.000
38.88000 461.000
38.92000 461.000
38.96000 422.000
39.00000 487.000
39.04000 430.000
39.08000 440.000
39.12000 457.000
39.16000 480.000
39.20000 405.000
39.24000 427.000
39.28000 478.000
39.32000 445.000
39.36000 430.000
39.40000 423.000
39.44000 433.000
39.48000 447.000
39.52000 426.000
39.56000 419.000
39.60000 460.000
39.64000 391.000
39.68000 453.000
39.72000 464.000
39.76000 430.000
39.80000 414.000
39.84000 445.000
39.88000 431.000
39.92000 468.000
39.96000 445.000
40.00000 416.000
40.04000 437.000
40.08000 415.000
40.12000 425.000
40.16000 467.000
40.20000 421.000
40.24000 414.000
40.28000 445.000
40.32000 469.000
40.36000 462.000
40.40000 420.000
40.44000 467.000
40.48000 429.000
40.52000 446.000
40.56000 421.000
40.60000 417.000
40.64000 441.000
40.68000 486.000
40.72000 463.000
40.76000 554.000
40.80000 573.000
40.84000 553.000
40.88000 704.000
40.92000 1025.000
40.96000 1367.000
41.00000 1501.000
41.04000 1444.000
41.08000 1289.000
41.12000 1106.000
41.16000 926.000
41.20000 614.000
41.24000 577.000
41.28000 479.000
41.32000 474.000
41.36000 472.000
41.40000 454.000
41.44000 454.000
41.48000 473.000
41.52000 451.000
41.56000 456.000
41.60000 455.000
41.64000 464.000
41.68000 519.000
41.72000 454.000
41.76000 465.000
41.80000 470.000
41.84000 462.000
41.88000 472.000
41.92000 493.000
41.96000 483.000
42.00000 507.000
42.04000 474.000
42.08000 491.000
42.12000 463.000
42.16000 426.000
42.20000 473.000
42.24000 472.000
42.28000 464.000
42.32000 479.000
42.36000 440.000
42.40000 490.000
42.44000 488.000
42.48000 491.000
42.52000 506.000
42.56000 495.000
42.60000 481.000
42.64000 475.000
42.68000 511.000
42.72000 461.000
42.76000 479.000
42.80000 479.000
42.84000 506.000
42.88000 475.000
42.92000 514.000
42.96000 478.000
43.00000 522.000
43.04000 561.000
43.08000 540.000
43.12000 489.000
43.16000 539.000
43.20000 572.000
43.24000 554.000
43.28000 687.000
43.32000 760.000
43.36000 865.000
43.40000 1054.000
43.44000 1439.000
43.48000 2346.000
43.52000 4047.000
43.56000 6667.000
43.60000 8083.000
43.64000 7003.000
43.68000 5996.000
43.72000 4976.000
43.76000 3316.000
43.80000 1938.000
43.84000 1210.000
43.88000 920.000
43.92000 736.000
43.96000 621.000
44.00000 557.000
44.04000 557.000
44.08000 506.000
44.12000 504.000
44.16000 477.000
44.20000 496.000
44.24000 482.000
44.28000 476.000
44.32000 481.000
44.36000 491.000
44.40000 486.000
44.44000 462.000
44.48000 463.000
44.52000 477.000
44.56000 466.000
44.60000 488.000
44.64000 454.000
44.68000 478.000
44.72000 468.000
44.76000 457.000
44.80000 467.000
44.84000 454.000
44.88000 447.000
44.92000 446.000
44.96000 472.000
45.00000 485.000
45.04000 427.000
45.08000 493.000
45.12000 426.000
45.16000 475.000
45.20000 475.000
45.24000 490.000
45.28000 445.000
45.32000 475.000
45.36000 485.000
45.40000 462.000
45.44000 469.000
45.48000 469.000
45.52000 497.000
45.56000 474.000
45.60000 443.000
45.64000 468.000
45.68000 425.000
45.72000 431.000
45.76000 463.000
45.80000 419.000
45.84000 418.000
45.88000 402.000
45.92000 419.000
45.96000 415.000
46.00000 432.000
46.04000 385.000
46.08000 422.000
46.12000 354.000
46.16000 434.000
46.20000 413.000
46.24000 400.000
46.28000 392.000
46.32000 399.000
46.36000 359.000
46.40000 422.000
46.44000 458.000
46.48000 395.000
46.52000 406.000
46.56000 409.000
46.60000 435.000
46.64000 390.000
46.68000 433.000
46.72000 388.000
46.76000 396.000
46.80000 391.000
46.84000 429.000
46.88000 395.000
46.92000 393.000
46.96000 376.000
47.00000 412.000
47.04000 426.000
47.08000 388.000
47.12000 373.000
47.16000 391.000
47.20000 378.000
47.24000 408.000
47.28000 409.000
47.32000 376.000
47.36000 398.000
47.40000 396.000
47.44000 381.000
47.48000 378.000
47.52000 431.000
47.56000 402.000
47.60000 412.000
47.64000 424.000
47.68000 348.000
47.72000 390.000
47.76000 356.000
47.80000 357.000
47.84000 375.000
47.88000 338.000
47.92000 393.000
47.96000 413.000
48.00000 387.000
48.04000 378.000
48.08000 400.000
48.12000 397.000
48.16000 372.000
48.20000 400.000
48.24000 387.000
48.28000 396.000
48.32000 387.000
48.36000 363.000
48.40000 396.000
48.44000 395.000
48.48000 387.000
48.52000 394.000
48.56000 387.000
48.60000 412.000
48.64000 383.000
48.68000 400.000
48.72000 393.000
48.76000 401.000
48.80000 363.000
48.84000 386.000
48.88000 383.000
48.92000 431.000
48.96000 393.000
49.00000 366.000
49.04000 381.000
49.08000 371.000
49.12000 369.000
49.16000 384.000
49.20000 382.000
49.24000 371.000
49.28000 398.000
49.32000 341.000
49.36000 360.000
49.40000 352.000
49.44000 370.000
49.48000 376.000
49.52000 362.000
49.56000 360.000
49.60000 325.000
49.64000 373.000
49.68000 395.000
49.72000 342.000
49.76000 354.000
49.80000 353.000
49.84000 379.000
49.88000 355.000
49.92000 365.000
49.96000 358.000
50.00000 368.000
50.04000 417.000
50.08000 371.000
50.12000 400.000
50.16000 402.000
50.20000 396.000
50.24000 370.000
50.28000 353.000
50.32000 359.000
50.36000 375.000
50.40000 407.000
50.44000 378.000
50.48000 364.000
50.52000 371.000
50.56000 342.000
50.60000 341.000
50.64000 397.000
50.68000 362.000
50.72000 421.000
50.76000 392.000
50.80000 400.000
50.84000 394.000
50.88000 376.000
50.92000 362.000
50.96000 391.000
51.00000 357.000
51.04000 362.000
51.08000 385.000
51.12000 335.000
51.16000 363.000
51.20000 383.000
51.24000 374.000
51.28000 378.000
51.32000 391.000
51.36000 365.000
51.40000 387.000
51.44000 361.000
51.48000 373.000
51.52000 366.000
51.56000 332.000
51.60000 378.000
51.64000 354.000
51.68000 388.000
51.72000 354.000
51.76000 358.000
51.80000 373.000
51.84000 385.000
51.88000 349.000
51.92000 336.000
51.96000 316.000
52.00000 374.000
52.04000 399.000
52.08000 341.000
52.12000 359.000
52.16000 382.000
52.20000 380.000
52.24000 362.000
52.28000 388.000
52.32000 383.000
52.36000 355.000
52.40000 366.000
52.44000 350.000
52.48000 388.000
52.52000 353.000
52.56000 367.000
52.60000 370.000
52.64000 363.000
52.68000 391.000
52.72000 376.000
52.76000 352.000
52.80000 330.000
52.84000 385.000
52.88000 400.000
52.92000 377.000
52.96000 380.000
53.00000 374.000
53.04000 398.000
53.08000 401.000
53.12000 396.000
53.16000 401.000
53.20000 382.000
53.24000 352.000
53.28000 343.000
53.32000 343.000
53.36000 380.000
53.40000 344.000
53.44000 359.000
53.48000 365.000
53.52000 344.000
53.56000 374.000
53.60000 350.000
53.64000 348.000
53.68000 368.000
53.72000 342.000
53.76000 381.000
53.80000 379.000
53.84000 390.000
53.88000 354.000
53.92000 354.000
53.96000 381.000
54.00000 357.000
54.04000 367.000
54.08000 369.000
54.12000 383.000
54.16000 363.000
54.20000 370.000
54.24000 421.000
54.28000 368.000
54.32000 384.000
54.36000 353.000
54.40000 388.000
54.44000 329.000
54.48000 363.000
54.52000 371.000
54.56000 402.000
54.60000 401.000
54.64000 377.000
54.68000 393.000
54.72000 384.000
54.76000 354.000
54.80000 363.000
54.84000 385.000
54.88000 351.000
54.92000 370.000
54.96000 377.000
55.00000 366.000
55.04000 377.000
55.08000 351.000
55.12000 370.000
55.16000 357.000
55.20000 360.000
55.24000 352.000
55.28000 385.000
55.32000 375.000
55.36000 375.000
55.40000 364.000
55.44000 364.000
55.48000 362.000
55.52000 354.000
55.56000 356.000
55.60000 353.000
55.64000 332.000
55.68000 380.000
55.72000 388.000
55.76000 372.000
55.80000 384.000
55.84000 384.000
55.88000 397.000
55.92000 372.000
55.96000 364.000
56.00000 343.000
56.04000 368.000
56.08000 365.000
56.12000 382.000
56.16000 366.000
56.20000 379.000
56.24000 387.000
56.28000 397.000
56.32000 347.000
56.36000 370.000
56.40000 391.000
56.44000 377.000
56.48000 384.000
56.52000 449.000
56.56000 410.000
56.60000 405.000
56.64000 425.000
56.68000 358.000
56.72000 387.000
56.76000 365.000
56.80000 356.000
56.84000 379.000
56.88000 385.000
56.92000 374.000
56.96000 400.000
57.00000 417.000
57.04000 382.000
57.08000 383.000
57.12000 377.000
57.16000 397.000
57.20000 370.000
57.24000 386.000
57.28000 376.000
57.32000 382.000
57.36000 409.000
57.40000 397.000
57.44000 411.000
57.48000 387.000
57.52000 424.000
57.56000 425.000
57.60000 386.000
57.64000 403.000
57.68000 416.000
57.72000 400.000
57.76000 398.000
57.80000 402.000
57.84000 404.000
57.88000 460.000
57.92000 378.000
57.96000 396.000
58.00000 459.000
58.04000 453.000
58.08000 411.000
58.12000 450.000
58.16000 416.000
58.20000 408.000
58.24000 433.000
58.28000 412.000
58.32000 427.000
58.36000 446.000
58.40000 452.000
58.44000 430.000
58.48000 449.000
58.52000 434.000
58.56000 505.000
58.60000 458.000
58.64000 485.000
58.68000 513.000
58.72000 512.000
58.76000 459.000
58.80000 522.000
58.84000 540.000
58.88000 577.000
58.92000 679.000
58.96000 700.000
59.00000 844.000
59.04000 982.000
59.08000 1168.000
59.12000 1596.000
59.16000 2484.000
59.20000 4151.000
59.24000 7453.000
59.28000 11089.000
59.32000 11182.000
59.36000 8544.000
59.40000 7221.000
59.44000 7336.000
59.48000 6589.000
59.52000 4466.000
59.56000 2633.000
59.60000 1716.000
59.64000 1206.000
59.68000 895.000
59.72000 710.000
59.76000 608.000
59.80000 592.000
59.84000 579.000
59.88000 569.000
59.92000 517.000
59.96000 527.000
60.00000 470.000
60.04000 499.000
60.08000 530.000
60.12000 496.000
60.16000 477.000
60.20000 519.000
60.24000 469.000
60.28000 416.000
60.32000 441.000
60.36000 444.000
60.40000 419.000
60.44000 440.000
60.48000 431.000
60.52000 461.000
60.56000 442.000
60.60000 422.000
60.64000 440.000
60.68000 413.000
60.72000 429.000
60.76000 416.000
60.80000 414.000
60.84000 406.000
60.88000 406.000
60.92000 383.000
60.96000 417.000
61.00000 452.000
61.04000 410.000
61.08000 442.000
61.12000 387.000
61.16000 408.000
61.20000 445.000
61.24000 444.000
61.28000 467.000
61.32000 463.000
61.36000 504.000
61.40000 445.000
61.44000 477.000
61.48000 426.000
61.52000 451.000
61.56000 403.000
61.60000 459.000
61.64000 437.000
61.68000 474.000
61.72000 402.000
61.76000 444.000
61.80000 432.000
61.84000 458.000
61.88000 436.000
61.92000 428.000
61.96000 471.000
62.00000 428.000
62.04000 405.000
62.08000 403.000
62.12000 373.000
62.16000 395.000
62.20000 381.000
62.24000 401.000
62.28000 395.000
62.32000 384.000
62.36000 414.000
62.40000 394.000
62.44000 416.000
62.48000 364.000
62.52000 358.000
62.56000 365.000
62.60000 368.000
62.64000 343.000
62.68000 377.000
62.72000 363.000
62.76000 392.000
62.80000 375.000
62.84000 344.000
62.88000 381.000
62.92000 399.000
62.96000 373.000
63.00000 356.000
63.04000 379.000
63.08000 338.000
63.12000 366.000
63.16000 391.000
63.20000 371.000
63.24000 357.000
63.28000 369.000
63.32000 359.000
63.36000 400.000
63.40000 319.000
63.44000 349.000
63.48000 346.000
63.52000 351.000
63.56000 354.000
63.60000 397.000
63.64000 321.000
63.68000 350.000
63.72000 340.000
63.76000 358.000
63.80000 318.000
63.84000 373.000
63.88000 347.000
63.92000 352.000
63.96000 403.000
64.00000 355.000
64.04000 391.000
64.08000 330.000
64.12000 352.000
64.16000 350.000
64.20000 417.000
64.24000 351.000
64.28000 328.000
64.32000 347.000
64.36000 381.000
64.40000 362.000
64.44000 324.000
64.48000 363.000
64.52000 353.000
64.56000 315.000
64.60000 337.000
64.64000 358.000
64.68000 344.000
64.72000 336.000
64.76000 330.000
64.80000 335.000
64.84000 336.000
64.88000 367.000
64.92000 340.000
64.96000 337.000
65.00000 353.000
65.04000 350.000
65.08000 340.000
65.12000 341.000
65.16000 345.000
65.20000 333.000
65.24000 356.000
65.28000 318.000
65.32000 309.000
65.36000 366.000
65.40000 354.000
65.44000 393.000
65.48000 350.000
65.52000 356.000
65.56000 328.000
65.60000 335.000
65.64000 367.000
65.68000 318.000
65.72000 366.000
65.76000 354.000
65.80000 355.000
65.84000 355.000
65.88000 368.000
65.92000 354.000
65.96000 344.000
66.00000 317.000
66.04000 407.000
66.08000 335.000
66.12000 333.000
66.16000 326.000
66.20000 339.000
66.24000 338.000
66.28000 344.000
66.32000 366.000
66.36000 370.000
66.40000 356.000
66.44000 338.000
66.48000 330.000
66.52000 323.000
66.56000 307.000
66.60000 353.000
66.64000 331.000
66.68000 326.000
66.72000 330.000
66.76000 321.000
66.80000 328.000
66.84000 298.000
66.88000 343.000
66.92000 331.000
66.96000 327.000
67.00000 339.000
67.04000 353.000
67.08000 322.000
67.12000 339.000
67.16000 348.000
67.20000 328.000
67.24000 317.000
67.28000 355.000
67.32000 343.000
67.36000 354.000
67.40000 317.000
67.44000 373.000
67.48000 310.000
67.52000 321.000
67.56000 336.000
67.60000 326.000
67.64000 353.000
67.68000 337.000
67.72000 352.000
67.76000 319.000
67.80000 326.000
67.84000 306.000
67.88000 314.000
67.92000 313.000
67.96000 331.000
68.00000 302.000
68.04000 318.000
68.08000 330.000
68.12000 324.000
68.16000 336.000
68.20000 313.000
68.24000 339.000
68.28000 304.000
68.32000 329.000
68.36000 324.000
68.40000 326.000
68.44000 308.000
68.48000 309.000
68.52000 327.000
68.56000 314.000
68.60000 276.000
68.64000 314.000
68.68000 319.000
68.72000 280.000
68.76000 313.000
68.80000 334.000
68.84000 321.000
68.88000 315.000
68.92000 295.000
68.96000 309.000
69.00000 320.000
69.04000 308.000
69.08000 301.000
69.12000 339.000
69.16000 330.000
69.20000 287.000
69.24000 316.000
69.28000 303.000
69.32000 298.000
69.36000 296.000
69.40000 292.000
69.44000 307.000
69.48000 322.000
69.52000 299.000
69.56000 301.000
69.60000 315.000
69.64000 300.000
69.68000 287.000
69.72000 276.000
69.76000 296.000
69.80000 305.000
69.84000 332.000
69.88000 345.000
69.92000 315.000
