5.00000 1510.000
5.04000 1431.000
5.08000 1401.000
5.12000 1467.000
5.16000 1433.000
5.20000 1404.000
5.24000 1442.000
5.28000 1379.000
5.32000 1420.000
5.36000 1368.000
5.40000 1432.000
5.44000 1336.000
5.48000 1372.000
5.52000 1352.000
5.56000 1306.000
5.60000 1270.000
5.64000 1350.000
5.68000 1313.000
5.72000 1286.000
5.76000 1265.000
5.80000 1264.000
5.84000 1175.000
5.88000 1221.000
5.92000 1267.000
5.96000 1280.000
6.00000 1223.000
6.04000 1217.000
6.08000 1236.000
6.12000 1193.000
6.16000 1120.000
6.20000 1150.000
6.24000 1166.000
6.28000 1198.000
6.32000 1163.000
6.36000 1154.000
6.40000 1146.000
6.44000 1198.000
6.48000 1086.000
6.52000 1123.000
6.56000 1109.000
6.60000 1100.000
6.64000 1100.000
6.68000 1126.000
6.72000 1122.000
6.76000 1149.000
6.80000 1052.000
6.84000 1022.000
6.88000 950.000
6.92000 1042.000
6.96000 1000.000
7.00000 1021.000
7.04000 1029.000
7.08000 1009.000
7.12000 958.000
7.16000 1012.000
7.20000 1023.000
7.24000 1025.000
7.28000 1025.000
7.32000 969.000
7.36000 946.000
7.40000 1014.000
7.44000 966.000
7.48000 929.000
7.52000 961.000
7.56000 980.000
7.60000 873.000
7.64000 855.000
7.68000 941.000
7.72000 914.000
7.76000 932.000
7.80000 910.000
7.84000 903.000
7.88000 917.000
7.92000 916.000
7.96000 922.000
8.00000 865.000
8.04000 862.000
8.08000 883.000
8.12000 850.000
8.16000 885.000
8.20000 844.000
8.24000 907.000
8.28000 813.000
8.32000 840.000
8.36000 857.000
8.40000 867.000
8.44000 889.000
8.48000 869.000
8.52000 806.000
8.56000 822.000
8.60000 867.000
8.64000 834.000
8.68000 852.000
8.72000 777.000
8.76000 775.000
8.80000 819.000
8.84000 822.000
8.88000 789.000
8.92000 758.000
8.96000 776.000
9.00000 753.000
9.04000 803.000
9.08000 783.000
9.12000 767.000
9.16000 758.000
9.20000 793.000
9.24000 717.000
9.28000 739.000
9.32000 711.000
9.36000 749.000
9.40000 728.000
9.44000 755.000
9.48000 713.000
9.52000 749.000
9.56000 765.000
9.60000 725.000
9.64000 730.000
9.68000 708.000
9.72000 733.000
9.76000 716.000
9.80000 716.000
9.84000 692.000
9.88000 703.000
9.92000 690.000
9.96000 643.000
10.00000 731.000
10.04000 730.000
10.08000 694.000
10.12000 676.000
10.16000 669.000
10.20000 705.000
10.24000 697.000
10.28000 640.000
10.32000 645.000
10.36000 680.000
10.40000 671.000
10.44000 706.000
10.48000 639.000
10.52000 660.000
10.56000 705.000
10.60000 610.000
10.64000 624.000
10.68000 638.000
10.72000 648.000
10.76000 642.000
10.80000 639.000
10.84000 664.000
10.88000 616.000
10.92000 606.000
10.96000 605.000
11.00000 609.000
11.04000 620.000
11.08000 638.000
11.12000 650.000
11.16000 615.000
11.20000 659.000
11.24000 647.000
11.28000 633.000
11.32000 596.000
11.36000 620.000
11.40000 577.000
11.44000 610.000
11.48000 576.000
11.52000 605.000
11.56000 624.000
11.60000 591.000
11.64000 633.000
11.68000 547.000
11.72000 589.000
11.76000 621.000
11.80000 621.000
11.84000 561.000
11.88000 615.000
11.92000 620.000
11.96000 571.000
12.00000 624.000
12.04000 645.000
12.08000 575.000
12.12000 545.000
12.16000 550.000
12.20000 635.000
12.24000 587.000
12.28000 599.000
12.32000 581.000
12.36000 592.000
12.40000 566.000
12.44000 594.000
12.48000 559.000
12.52000 570.000
12.56000 562.000
12.60000 601.000
12.64000 589.000
12.68000 611.000
12.72000 562.000
12.76000 644.000
12.80000 661.000
12.84000 685.000
12.88000 722.000
12.92000 694.000
12.96000 706.000
13.00000 673.000
13.04000 581.000
13.08000 632.000
13.12000 557.000
13.16000 619.000
13.20000 648.000
13.24000 611.000
13.28000 626.000
13.32000 605.000
13.36000 634.000
13.40000 614.000
13.44000 630.000
13.48000 618.000
13.52000 648.000
13.56000 678.000
13.60000 714.000
13.64000 756.000
13.68000 862.000
13.72000 897.000
13.76000 888.000
13.80000 911.000
13.84000 1001.000
13.88000 1105.000
13.92000 1260.000
13.96000 1500.000
14.00000 1973.000
14.04000 2647.000
14.08000 3754.000
14.12000 5795.000
14.16000 9416.000
14.20000 15771.000
14.24000 26642.000
14.28000 42665.000
14.32000 52302.000
14.36000 40630.000
14.40000 22692.000
14.44000 11161.000
14.48000 6520.000
14.52000 3861.000
14.56000 2451.000
14.60000 1825.000
14.64000 1584.000
14.68000 1385.000
14.72000 1413.000
14.76000 1419.000
14.80000 1590.000
14.84000 1614.000
14.88000 1587.000
14.92000 1323.000
14.96000 1137.000
15.00000 1008.000
15.04000 897.000
15.08000 817.000
15.12000 736.000
15.16000 703.000
15.20000 630.000
15.24000 649.000
15.28000 581.000
15.32000 619.000
15.36000 559.000
15.40000 509.000
15.44000 546.000
15.48000 528.000
15.52000 516.000
15.56000 487.000
15.60000 540.000
15.64000 518.000
15.68000 535.000
15.72000 529.000
15.76000 449.000
15.80000 517.000
15.84000 498.000
15.88000 482.000
15.92000 489.000
15.96000 451.000
16.00000 501.000
16.04000 447.000
16.08000 479.000
16.12000 453.000
16.16000 474.000
16.20000 514.000
16.24000 486.000
16.28000 451.000
16.32000 465.000
16.36000 467.000
16.40000 459.000
16.44000 477.000
16.48000 466.000
16.52000 448.000
16.56000 446.000
16.60000 439.000
16.64000 472.000
16.68000 431.000
16.72000 470.000
16.76000 424.000
16.80000 463.000
16.84000 468.000
16.88000 432.000
16.92000 439.000
16.96000 433.000
17.00000 480.000
17.04000 476.000
17.08000 461.000
17.12000 395.000
17.16000 429.000
17.20000 420.000
17.24000 447.000
17.28000 474.000
17.32000 454.000
17.36000 446.000
17.40000 421.000
17.44000 438.000
17.48000 438.000
17.52000 440.000
17.56000 444.000
17.60000 479.000
17.64000 451.000
17.68000 454.000
17.72000 423.000
17.76000 424.000
17.80000 481.000
17.84000 418.000
17.88000 427.000
17.92000 442.000
17.96000 450.000
18.00000 433.000
18.04000 413.000
18.08000 443.000
18.12000 467.000
18.16000 440.000
18.20000 443.000
18.24000 453.000
18.28000 443.000
18.32000 422.000
18.36000 412.000
18.40000 452.000
18.44000 415.000
18.48000 428.000
18.52000 419.000
18.56000 442.000
18.60000 459.000
18.64000 435.000
18.68000 410.000
18.72000 437.000
18.76000 470.000
18.80000 418.000
18.84000 420.000
18.88000 426.000
18.92000 418.000
18.96000 439.000
19.00000 447.000
19.04000 442.000
19.08000 417.000
19.12000 407.000
19.16000 443.000
19.20000 422.000
19.24000 446.000
19.28000 433.000
19.32000 421.000
19.36000 448.000
19.40000 383.000
19.44000 429.000
19.48000 425.000
19.52000 435.000
19.56000 410.000
19.60000 444.000
19.64000 424.000
19.68000 429.000
19.72000 450.000
19.76000 406.000
19.80000 427.000
19.84000 417.000
19.88000 441.000
19.92000 425.000
19.96000 466.000
20.00000 402.000
20.04000 444.000
20.08000 459.000
20.12000 452.000
20.16000 422.000
20.20000 476.000
20.24000 461.000
20.28000 431.000
20.32000 439.000
20.36000 412.000
20.40000 486.000
20.44000 455.000
20.48000 438.000
20.52000 432.000
20.56000 432.000
20.60000 485.000
20.64000 454.000
20.68000 466.000
20.72000 463.000
20.76000 437.000
20.80000 462.000
20.84000 425.000
20.88000 427.000
20.92000 460.000
20.96000 467.000
21.00000 469.000
21.04000 478.000
21.08000 496.000
21.12000 454.000
21.16000 479.000
21.20000 456.000
21.24000 489.000
21.28000 434.000
21.32000 443.000
21.36000 492.000
21.40000 451.000
21.44000 426.000
21.48000 471.000
21.52000 467.000
21.56000 477.000
21.60000 452.000
21.64000 472.000
21.68000 454.000
21.72000 479.000
21.76000 483.000
21.80000 462.000
21.84000 494.000
21.88000 471.000
21.92000 415.000
21.96000 471.000
22.00000 452.000
22.04000 510.000
22.08000 472.000
22.12000 497.000
22.16000 446.000
22.20000 495.000
22.24000 468.000
22.28000 491.000
22.32000 456.000
22.36000 466.000
22.40000 497.000
22.44000 451.000
22.48000 460.000
22.52000 470.000
22.56000 510.000
22.60000 475.000
22.64000 491.000
22.68000 465.000
22.72000 472.000
22.76000 476.000
22.80000 477.000
22.84000 464.000
22.88000 475.000
22.92000 464.000
22.96000 464.000
23.00000 452.000
23.04000 461.000
23.08000 501.000
23.12000 497.000
23.16000 458.000
23.20000 492.000
23.24000 512.000
23.28000 450.000
23.32000 495.000
23.36000 456.000
23.40000 496.000
23.44000 472.000
23.48000 537.000
23.52000 456.000
23.56000 487.000
23.60000 510.000
23.64000 477.000
23.68000 468.000
23.72000 505.000
23.76000 505.000
23.80000 458.000
23.84000 500.000
23.88000 474.000
23.92000 458.000
23.96000 459.000
24.00000 436.000
24.04000 520.000
24.08000 476.000
24.12000 489.000
24.16000 504.000
24.20000 458.000
24.24000 476.000
24.28000 520.000
24.32000 479.000
24.36000 516.000
24.40000 452.000
24.44000 481.000
24.48000 458.000
24.52000 485.000
24.56000 538.000
24.60000 559.000
24.64000 546.000
24.68000 648.000
24.72000 754.000
24.76000 863.000
24.80000 948.000
24.84000 972.000
24.88000 840.000
24.92000 724.000
24.96000 579.000
25.00000 526.000
25.04000 505.000
25.08000 505.000
25.12000 516.000
25.16000 525.000
25.20000 466.000
25.24000 491.000
25.28000 453.000
25.32000 454.000
25.36000 445.000
25.40000 464.000
25.44000 459.000
25.48000 494.000
25.52000 466.000
25.56000 480.000
25.60000 489.000
25.64000 471.000
25.68000 479.000
25.72000 469.000
25.76000 494.000
25.80000 522.000
25.84000 488.000
25.88000 516.000
25.92000 501.000
25.96000 494.000
26.00000 480.000
26.04000 484.000
26.08000 504.000
26.12000 480.000
26.16000 469.000
26.20000 462.000
26.24000 451.000
26.28000 470.000
26.32000 459.000
26.36000 474.000
26.40000 460.000
26.44000 472.000
26.48000 444.000
26.52000 446.000
26.56000 487.000
26.60000 480.000
26.64000 455.000
26.68000 449.000
26.72000 471.000
26.76000 452.000
26.80000 456.000
26.84000 495.000
26.88000 492.000
26.92000 487.000
26.96000 510.000
27.00000 430.000
27.04000 480.000
27.08000 472.000
27.12000 476.000
27.16000 482.000
27.20000 491.000
27.24000 481.000
27.28000 488.000
27.32000 481.000
27.36000 460.000
27.40000 488.000
27.44000 473.000
27.48000 459.000
27.52000 485.000
27.56000 464.000
27.60000 485.000
27.64000 463.000
27.68000 475.000
27.72000 484.000
27.76000 501.000
27.80000 473.000
27.84000 450.000
27.88000 484.000
27.92000 487.000
27.96000 472.000
28.00000 459.000
28.04000 470.000
28.08000 454.000
28.12000 486.000
28.16000 502.000
28.20000 494.000
28.24000 524.000
28.28000 529.000
28.32000 563.000
28.36000 576.000
28.40000 557.000
28.44000 701.000
28.48000 782.000
28.52000 996.000
28.56000 1374.000
28.60000 1993.000
28.64000 3030.000
28.68000 4350.000
28.72000 5209.000
28.76000 4488.000
28.80000 3432.000
28.84000 2261.000
28.88000 1410.000
28.92000 993.000
28.96000 722.000
29.00000 579.000
29.04000 586.000
29.08000 512.000
29.12000 526.000
29.16000 519.000
29.20000 475.000
29.24000 500.000
29.28000 500.000
29.32000 462.000
29.36000 515.000
29.40000 507.000
29.44000 500.000
29.48000 470.000
29.52000 510.000
29.56000 505.000
29.60000 500.000
29.64000 537.000
29.68000 530.000
29.72000 515.000
29.76000 547.000
29.80000 610.000
29.84000 561.000
29.88000 592.000
29.92000 577.000
29.96000 541.000
30.00000 536.000
30.04000 493.000
30.08000 516.000
30.12000 502.000
30.16000 423.000
30.20000 429.000
30.24000 430.000
30.28000 421.000
30.32000 443.000
30.36000 453.000
30.40000 449.000
30.44000 441.000
30.48000 436.000
30.52000 422.000
30.56000 420.000
30.60000 428.000
30.64000 386.000
30.68000 432.000
30.72000 408.000
30.76000 381.000
30.80000 399.000
30.84000 395.000
30.88000 382.000
30.92000 388.000
30.96000 378.000
31.00000 402.000
31.04000 374.000
31.08000 368.000
31.12000 371.000
31.16000 385.000
31.20000 398.000
31.24000 361.000
31.28000 428.000
31.32000 366.000
31.36000 420.000
31.40000 414.000
31.44000 368.000
31.48000 383.000
31.52000 371.000
31.56000 372.000
31.60000 416.000
31.64000 356.000
31.68000 374.000
31.72000 352.000
31.76000 349.000
31.80000 382.000
31.84000 357.000
31.88000 398.000
31.92000 406.000
31.96000 463.000
32.00000 518.000
32.04000 597.000
32.08000 693.000
32.12000 930.000
32.16000 1162.000
32.20000 1183.000
32.24000 1009.000
32.28000 785.000
32.32000 580.000
32.36000 507.000
32.40000 399.000
32.44000 384.000
32.48000 387.000
32.52000 361.000
32.56000 324.000
32.60000 351.000
32.64000 334.000
32.68000 334.000
32.72000 345.000
32.76000 345.000
32.80000 362.000
32.84000 330.000
32.88000 358.000
32.92000 312.000
32.96000 343.000
33.00000 378.000
33.04000 342.000
33.08000 341.000
33.12000 339.000
33.16000 328.000
33.20000 361.000
33.24000 333.000
33.28000 342.000
33.32000 329.000
33.36000 386.000
33.40000 347.000
33.44000 327.000
33.48000 346.000
33.52000 319.000
33.56000 328.000
33.60000 329.000
33.64000 306.000
33.68000 295.000
33.72000 311.000
33.76000 315.000
33.80000 338.000
33.84000 324.000
33.88000 297.000
33.92000 274.000
33.96000 322.000
34.00000 341.000
34.04000 327.000
34.08000 286.000
34.12000 307.000
34.16000 322.000
34.20000 306.000
34.24000 315.000
34.28000 304.000
34.32000 304.000
34.36000 303.000
34.40000 332.000
34.44000 294.000
34.48000 317.000
34.52000 283.000
34.56000 279.000
34.60000 322.000
34.64000 301.000
34.68000 290.000
34.72000 268.000
34.76000 308.000
34.80000 262.000
34.84000 314.000
34.88000 290.000
34.92000 259.000
34.96000 292.000
35.00000 273.000
35.04000 271.000
35.08000 319.000
35.12000 242.000
35.16000 291.000
35.20000 300.000
35.24000 288.000
35.28000 245.000
35.32000 286.000
35.36000 266.000
35.40000 294.000
35.44000 278.000
35.48000 307.000
35.52000 304.000
35.56000 283.000
35.60000 293.000
35.64000 269.000
35.68000 282.000
35.72000 243.000
35.76000 274.000
35.80000 280.000
35.84000 279.000
35.88000 281.000
35.92000 272.000
35.96000 301.000
36.00000 264.000
36.04000 297.000
36.08000 281.000
36.12000 286.000
36.16000 250.000
36.20000 272.000
36.24000 277.000
36.28000 270.000
36.32000 261.000
36.36000 268.000
36.40000 250.000
36.44000 268.000
36.48000 250.000
36.52000 285.000
36.56000 261.000
36.60000 253.000
36.64000 282.000
36.68000 263.000
36.72000 284.000
36.76000 275.000
36.80000 267.000
36.84000 288.000
36.88000 309.000
36.92000 264.000
36.96000 267.000
37.00000 255.000
37.04000 283.000
37.08000 259.000
37.12000 266.000
37.16000 291.000
37.20000 292.000
37.24000 248.000
37.28000 295.000
37.32000 258.000
37.36000 280.000
37.40000 281.000
37.44000 285.000
37.48000 293.000
37.52000 282.000
37.56000 300.000
37.60000 283.000
37.64000 265.000
37.68000 276.000
37.72000 269.000
37.76000 256.000
37.80000 248.000
37.84000 263.000
37.88000 254.000
37.92000 249.000
37.96000 232.000
38.00000 238.000
38.04000 268.000
38.08000 247.000
38.12000 237.000
38.16000 273.000
38.20000 275.000
38.24000 248.000
38.28000 251.000
38.32000 289.000
38.36000 249.000
38.40000 258.000
38.44000 252.000
38.48000 225.000
38.52000 239.000
38.56000 254.000
38.60000 221.000
38.64000 269.000
38.68000 240.000
38.72000 253.000
38.76000 271.000
38.80000 244.000
38.84000 240.000
38.88000 269.000
38.92000 258.000
38.96000 278.000
39.00000 296.000
39.04000 299.000
39.08000 290.000
39.12000 247.000
39.16000 251.000
39.20000 286.000
39.24000 233.000
39.28000 246.000
39.32000 254.000
39.36000 223.000
39.40000 266.000
39.44000 246.000
39.48000 200.000
39.52000 224.000
39.56000 227.000
39.60000 221.000
39.64000 243.000
39.68000 195.000
39.72000 194.000
39.76000 235.000
39.80000 216.000
39.84000 189.000
39.88000 201.000
39.92000 227.000
39.96000 236.000
40.00000 225.000
40.04000 222.000
40.08000 208.000
40.12000 209.000
40.16000 208.000
40.20000 228.000
40.24000 222.000
40.28000 204.000
40.32000 204.000
40.36000 225.000
40.40000 228.000
40.44000 201.000
40.48000 207.000
40.52000 218.000
40.56000 226.000
40.60000 243.000
40.64000 205.000
40.68000 192.000
40.72000 264.000
40.76000 252.000
40.80000 237.000
40.84000 263.000
40.88000 305.000
40.92000 357.000
40.96000 444.000
41.00000 492.000
41.04000 444.000
41.08000 408.000
41.12000 363.000
41.16000 285.000
41.20000 271.000
41.24000 215.000
41.28000 229.000
41.32000 239.000
41.36000 232.000
41.40000 220.000
41.44000 203.000
41.48000 201.000
41.52000 224.000
41.56000 207.000
41.60000 222.000
41.64000 209.000
41.68000 214.000
41.72000 201.000
41.76000 223.000
41.80000 200.000
41.84000 215.000
41.88000 200.000
41.92000 210.000
41.96000 210.000
42.00000 188.000
42.04000 209.000
42.08000 192.000
42.12000 228.000
42.16000 203.000
42.20000 200.000
42.24000 193.000
42.28000 200.000
42.32000 220.000
42.36000 200.000
42.40000 198.000
42.44000 206.000
42.48000 224.000
42.52000 205.000
42.56000 230.000
42.60000 210.000
42.64000 222.000
42.68000 214.000
42.72000 200.000
42.76000 195.000
42.80000 213.000
42.84000 226.000
42.88000 219.000
42.92000 190.000
42.96000 200.000
43.00000 217.000
43.04000 208.000
43.08000 202.000
43.12000 201.000
43.16000 211.000
43.20000 199.000
43.24000 214.000
43.28000 207.000
43.32000 177.000
43.36000 228.000
43.40000 228.000
43.44000 241.000
43.48000 273.000
43.52000 326.000
43.56000 407.000
43.60000 446.000
43.64000 387.000
43.68000 354.000
43.72000 290.000
43.76000 277.000
43.80000 232.000
43.84000 228.000
43.88000 220.000
43.92000 214.000
43.96000 188.000
44.00000 224.000
44.04000 184.000
44.08000 231.000
44.12000 215.000
44.16000 223.000
44.20000 180.000
44.24000 201.000
44.28000 215.000
44.32000 187.000
44.36000 197.000
44.40000 197.000
44.44000 209.000
44.48000 214.000
44.52000 200.000
44.56000 238.000
44.60000 227.000
44.64000 193.000
44.68000 206.000
44.72000 219.000
44.76000 202.000
44.80000 182.000
44.84000 201.000
44.88000 227.000
44.92000 191.000
44.96000 200.000
45.00000 205.000
45.04000 219.000
45.08000 203.000
45.12000 213.000
45.16000 217.000
45.20000 188.000
45.24000 206.000
45.28000 208.000
45.32000 195.000
45.36000 226.000
45.40000 188.000
45.44000 194.000
45.48000 200.000
45.52000 204.000
45.56000 205.000
45.60000 218.000
45.64000 211.000
45.68000 198.000
45.72000 206.000
45.76000 177.000
45.80000 182.000
45.84000 222.000
45.88000 192.000
45.92000 215.000
45.96000 204.000
46.00000 209.000
46.04000 187.000
46.08000 227.000
46.12000 202.000
46.16000 206.000
46.20000 200.000
46.24000 215.000
46.28000 230.000
46.32000 190.000
46.36000 210.000
46.40000 186.000
46.44000 192.000
46.48000 182.000
46.52000 202.000
46.56000 215.000
46.60000 180.000
46.64000 213.000
46.68000 215.000
46.72000 203.000
46.76000 188.000
46.80000 210.000
46.84000 214.000
46.88000 184.000
46.92000 205.000
46.96000 195.000
47.00000 196.000
47.04000 207.000
47.08000 224.000
47.12000 217.000
47.16000 207.000
47.20000 198.000
47.24000 206.000
47.28000 197.000
47.32000 199.000
47.36000 224.000
47.40000 214.000
47.44000 209.000
47.48000 181.000
47.52000 180.000
47.56000 198.000
47.60000 205.000
47.64000 177.000
47.68000 199.000
47.72000 191.000
47.76000 198.000
47.80000 198.000
47.84000 194.000
47.88000 212.000
47.92000 211.000
47.96000 189.000
48.00000 208.000
48.04000 190.000
48.08000 229.000
48.12000 222.000
48.16000 232.000
48.20000 190.000
48.24000 261.000
48.28000 331.000
48.32000 394.000
48.36000 499.000
48.40000 830.000
48.44000 1089.000
48.48000 1153.000
48.52000 925.000
48.56000 816.000
48.60000 778.000
48.64000 565.000
48.68000 407.000
48.72000 353.000
48.76000 274.000
48.80000 247.000
48.84000 216.000
48.88000 199.000
48.92000 209.000
48.96000 209.000
49.00000 188.000
49.04000 207.000
49.08000 196.000
49.12000 211.000
49.16000 177.000
49.20000 180.000
49.24000 188.000
49.28000 196.000
49.32000 209.000
49.36000 184.000
49.40000 162.000
49.44000 175.000
49.48000 168.000
49.52000 188.000
49.56000 194.000
49.60000 185.000
49.64000 179.000
49.68000 187.000
49.72000 152.000
49.76000 173.000
49.80000 158.000
49.84000 185.000
49.88000 177.000
49.92000 175.000
49.96000 160.000
50.00000 177.000
50.04000 193.000
50.08000 175.000
50.12000 189.000
50.16000 200.000
50.20000 183.000
50.24000 222.000
50.28000 202.000
50.32000 222.000
50.36000 207.000
50.40000 224.000
50.44000 217.000
50.48000 235.000
50.52000 230.000
50.56000 183.000
50.60000 233.000
50.64000 209.000
50.68000 234.000
50.72000 249.000
50.76000 244.000
50.80000 238.000
50.84000 214.000
50.88000 268.000
50.92000 209.000
50.96000 176.000
51.00000 182.000
51.04000 190.000
51.08000 181.000
51.12000 173.000
51.16000 195.000
51.20000 186.000
51.24000 148.000
51.28000 163.000
51.32000 126.000
51.36000 169.000
51.40000 172.000
51.44000 156.000
51.48000 174.000
51.52000 178.000
51.56000 157.000
51.60000 143.000
51.64000 153.000
51.68000 173.000
51.72000 173.000
51.76000 185.000
51.80000 153.000
51.84000 160.000
51.88000 157.000
51.92000 155.000
51.96000 162.000
52.00000 156.000
52.04000 148.000
52.08000 181.000
52.12000 161.000
52.16000 166.000
52.20000 172.000
52.24000 144.000
52.28000 171.000
52.32000 147.000
52.36000 153.000
52.40000 175.000
52.44000 174.000
52.48000 188.000
52.52000 154.000
52.56000 152.000
52.60000 154.000
52.64000 162.000
52.68000 170.000
52.72000 162.000
52.76000 145.000
52.80000 171.000
52.84000 166.000
52.88000 203.000
52.92000 240.000
52.96000 238.000
53.00000 229.000
53.04000 219.000
53.08000 216.000
53.12000 229.000
53.16000 172.000
53.20000 183.000
53.24000 177.000
53.28000 156.000
53.32000 154.000
53.36000 155.000
53.40000 160.000
53.44000 165.000
53.48000 160.000
53.52000 165.000
53.56000 147.000
53.60000 167.000
53.64000 147.000
53.68000 144.000
53.72000 141.000
53.76000 142.000
53.80000 153.000
53.84000 149.000
53.88000 167.000
53.92000 159.000
53.96000 154.000
54.00000 159.000
54.04000 152.000
54.08000 153.000
54.12000 134.000
54.16000 167.000
54.20000 152.000
54.24000 170.000
54.28000 156.000
54.32000 157.000
54.36000 134.000
54.40000 166.000
54.44000 148.000
54.48000 145.000
54.52000 151.000
54.56000 151.000
54.60000 141.000
54.64000 167.000
54.68000 140.000
54.72000 150.000
54.76000 158.000
54.80000 165.000
54.84000 159.000
54.88000 145.000
54.92000 157.000
54.96000 160.000
55.00000 153.000
55.04000 151.000
55.08000 149.000
55.12000 156.000
55.16000 149.000
55.20000 143.000
55.24000 138.000
55.28000 160.000
55.32000 172.000
55.36000 142.000
55.40000 166.000
55.44000 147.000
55.48000 156.000
55.52000 143.000
55.56000 143.000
55.60000 152.000
55.64000 159.000
55.68000 139.000
55.72000 143.000
55.76000 146.000
55.80000 138.000
55.84000 148.000
55.88000 160.000
55.92000 171.000
55.96000 143.000
56.00000 174.000
56.04000 146.000
56.08000 146.000
56.12000 128.000
56.16000 140.000
56.20000 152.000
56.24000 143.000
56.28000 154.000
56.32000 156.000
56.36000 132.000
56.40000 155.000
56.44000 155.000
56.48000 151.000
56.52000 146.000
56.56000 150.000
56.60000 146.000
56.64000 118.000
56.68000 160.000
56.72000 145.000
56.76000 155.000
56.80000 139.000
56.84000 170.000
56.88000 143.000
56.92000 142.000
56.96000 148.000
57.00000 145.000
57.04000 144.000
57.08000 155.000
57.12000 142.000
57.16000 135.000
57.20000 144.000
57.24000 155.000
57.28000 164.000
57.32000 153.000
57.36000 126.000
57.40000 164.000
57.44000 148.000
57.48000 147.000
57.52000 128.000
57.56000 130.000
57.60000 140.000
57.64000 132.000
57.68000 137.000
57.72000 147.000
57.76000 158.000
57.80000 135.000
57.84000 155.000
57.88000 130.000
57.92000 128.000
57.96000 146.000
58.00000 129.000
58.04000 151.000
58.08000 145.000
58.12000 131.000
58.16000 170.000
58.20000 155.000
58.24000 143.000
58.28000 138.000
58.32000 156.000
58.36000 142.000
58.40000 155.000
58.44000 137.000
58.48000 152.000
58.52000 130.000
58.56000 148.000
58.60000 147.000
58.64000 155.000
58.68000 133.000
58.72000 132.000
58.76000 136.000
58.80000 132.000
58.84000 139.000
58.88000 141.000
58.92000 130.000
58.96000 136.000
59.00000 123.000
59.04000 126.000
59.08000 131.000
59.12000 131.000
59.16000 129.000
59.20000 123.000
59.24000 170.000
59.28000 147.000
59.32000 133.000
59.36000 147.000
59.40000 147.000
59.44000 146.000
59.48000 135.000
59.52000 147.000
59.56000 137.000
59.60000 143.000
59.64000 107.000
59.68000 134.000
59.72000 121.000
59.76000 144.000
59.80000 140.000
59.84000 132.000
59.88000 120.000
59.92000 135.000
59.96000 147.000
60.00000 141.000
60.04000 147.000
60.08000 136.000
60.12000 128.000
60.16000 130.000
60.20000 123.000
60.24000 124.000
60.28000 137.000
60.32000 133.000
60.36000 118.000
60.40000 123.000
60.44000 124.000
60.48000 121.000
60.52000 146.000
60.56000 121.000
60.60000 142.000
60.64000 126.000
60.68000 122.000
60.72000 145.000
60.76000 128.000
60.80000 147.000
60.84000 131.000
60.88000 131.000
60.92000 124.000
60.96000 135.000
61.00000 144.000
61.04000 127.000
61.08000 123.000
61.12000 131.000
61.16000 159.000
61.20000 137.000
61.24000 164.000
61.28000 205.000
61.32000 230.000
61.36000 191.000
61.40000 203.000
61.44000 184.000
61.48000 176.000
61.52000 164.000
61.56000 155.000
61.60000 139.000
61.64000 132.000
61.68000 129.000
61.72000 130.000
61.76000 171.000
61.80000 136.000
61.84000 130.000
61.88000 127.000
61.92000 136.000
61.96000 134.000
62.00000 118.000
62.04000 126.000
62.08000 122.000
62.12000 131.000
62.16000 134.000
62.20000 116.000
62.24000 143.000
62.28000 119.000
62.32000 118.000
62.36000 139.000
62.40000 141.000
62.44000 108.000
62.48000 123.000
62.52000 145.000
62.56000 124.000
62.60000 129.000
62.64000 127.000
62.68000 114.000
62.72000 121.000
62.76000 140.000
62.80000 140.000
62.84000 132.000
62.88000 132.000
62.92000 127.000
62.96000 116.000
63.00000 105.000
63.04000 133.000
63.08000 136.000
63.12000 142.000
63.16000 144.000
63.20000 128.000
63.24000 136.000
63.28000 141.000
63.32000 140.000
63.36000 128.000
63.40000 143.000
63.44000 142.000
63.48000 152.000
63.52000 130.000
63.56000 155.000
63.60000 145.000
63.64000 125.000
63.68000 116.000
63.72000 117.000
63.76000 140.000
63.80000 137.000
63.84000 140.000
63.88000 135.000
63.92000 125.000
63.96000 150.000
64.00000 127.000
64.04000 120.000
64.08000 144.000
64.12000 131.000
64.16000 143.000
64.20000 135.000
64.24000 123.000
64.28000 122.000
64.32000 140.000
64.36000 140.000
64.40000 135.000
64.44000 131.000
64.48000 148.000
64.52000 144.000
64.56000 132.000
64.60000 133.000
64.64000 134.000
64.68000 133.000
64.72000 142.000
64.76000 123.000
64.80000 139.000
64.84000 120.000
64.88000 124.000
64.92000 140.000
64.96000 139.000
65.00000 141.000
65.04000 137.000
65.08000 133.000
65.12000 135.000
65.16000 134.000
65.20000 144.000
65.24000 140.000
65.28000 147.000
65.32000 117.000
65.36000 152.000
65.40000 135.000
65.44000 135.000
65.48000 146.000
65.52000 140.000
65.56000 140.000
65.60000 142.000
65.64000 121.000
65.68000 139.000
65.72000 132.000
65.76000 113.000
65.80000 139.000
65.84000 130.000
65.88000 146.000
65.92000 141.000
65.96000 133.000
66.00000 141.000
66.04000 134.000
66.08000 148.000
66.12000 121.000
66.16000 156.000
66.20000 146.000
66.24000 140.000
66.28000 156.000
66.32000 114.000
66.36000 125.000
66.40000 152.000
66.44000 127.000
66.48000 150.000
66.52000 140.000
66.56000 164.000
66.60000 157.000
66.64000 137.000
66.68000 163.000
66.72000 154.000
66.76000 143.000
66.80000 163.000
66.84000 136.000
66.88000 158.000
66.92000 152.000
66.96000 158.000
67.00000 210.000
67.04000 252.000
67.08000 335.000
67.12000 372.000
67.16000 415.000
67.20000 368.000
67.24000 286.000
67.28000 250.000
67.32000 302.000
67.36000 267.000
67.40000 223.000
67.44000 214.000
67.48000 176.000
67.52000 167.000
67.56000 145.000
67.60000 160.000
67.64000 158.000
67.68000 141.000
67.72000 144.000
67.76000 146.000
67.80000 151.000
67.84000 167.000
67.88000 136.000
67.92000 168.000
67.96000 147.000
68.00000 139.000
68.04000 130.000
68.08000 136.000
68.12000 145.000
68.16000 154.000
68.20000 158.000
68.24000 142.000
68.28000 141.000
68.32000 150.000
68.36000 148.000
68.40000 135.000
68.44000 147.000
68.48000 140.000
68.52000 145.000
68.56000 159.000
68.60000 145.000
68.64000 168.000
68.68000 141.000
68.72000 150.000
68.76000 159.000
68.80000 165.000
68.84000 179.000
68.88000 221.000
68.92000 299.000
68.96000 390.000
69.00000 517.000
69.04000 480.000
69.08000 417.000
69.12000 362.000
69.16000 338.000
69.20000 349.000
69.24000 331.000
69.28000 286.000
69.32000 241.000
69.36000 211.000
69.40000 167.000
69.44000 170.000
69.48000 158.000
69.52000 163.000
69.56000 138.000
69.60000 154.000
69.64000 146.000
69.68000 130.000
69.72000 129.000
69.76000 138.000
69.80000 128.000
69.84000 122.000
69.88000 122.000
69.92000 134.000
