5.00000 732.000
5.04000 796.000
5.08000 792.000
5.12000 760.000
5.16000 741.000
5.20000 759.000
5.24000 707.000
5.28000 764.000
5.32000 726.000
5.36000 690.000
5.40000 755.000
5.44000 684.000
5.48000 662.000
5.52000 673.000
5.56000 755.000
5.60000 645.000
5.64000 648.000
5.68000 635.000
5.72000 620.000
5.76000 665.000
5.80000 635.000
5.84000 662.000
5.88000 653.000
5.92000 625.000
5.96000 599.000
6.00000 616.000
6.04000 611.000
6.08000 545.000
6.12000 566.000
6.16000 573.000
6.20000 594.000
6.24000 598.000
6.28000 558.000
6.32000 611.000
6.36000 580.000
6.40000 583.000
6.44000 583.000
6.48000 541.000
6.52000 585.000
6.56000 525.000
6.60000 526.000
6.64000 489.000
6.68000 503.000
6.72000 495.000
6.76000 495.000
6.80000 508.000
6.84000 537.000
6.88000 473.000
6.92000 488.000
6.96000 480.000
7.00000 453.000
7.04000 493.000
7.08000 469.000
7.12000 440.000
7.16000 479.000
7.20000 480.000
7.24000 436.000
7.28000 452.000
7.32000 457.000
7.36000 440.000
7.40000 424.000
7.44000 421.000
7.48000 435.000
7.52000 479.000
7.56000 427.000
7.60000 447.000
7.64000 394.000
7.68000 445.000
7.72000 423.000
7.76000 421.000
7.80000 416.000
7.84000 403.000
7.88000 435.000
7.92000 443.000
7.96000 405.000
8.00000 429.000
8.04000 390.000
8.08000 414.000
8.12000 443.000
8.16000 401.000
8.20000 429.000
8.24000 431.000
8.28000 371.000
8.32000 419.000
8.36000 395.000
8.40000 388.000
8.44000 386.000
8.48000 386.000
8.52000 403.000
8.56000 384.000
8.60000 425.000
8.64000 365.000
8.68000 385.000
8.72000 350.000
8.76000 378.000
8.80000 341.000
8.84000 392.000
8.88000 359.000
8.92000 378.000
8.96000 380.000
9.00000 331.000
9.04000 370.000
9.08000 347.000
9.12000 344.000
9.16000 350.000
9.20000 338.000
9.24000 350.000
9.28000 340.000
9.32000 327.000
9.36000 331.000
9.40000 360.000
9.44000 331.000
9.48000 326.000
9.52000 357.000
9.56000 325.000
9.60000 314.000
9.64000 370.000
9.68000 332.000
9.72000 347.000
9.76000 311.000
9.80000 329.000
9.84000 287.000
9.88000 304.000
9.92000 329.000
9.96000 332.000
10.00000 320.000
10.04000 307.000
10.08000 318.000
10.12000 325.000
10.16000 297.000
10.20000 329.000
10.24000 308.000
10.28000 299.000
10.32000 344.000
10.36000 305.000
10.40000 287.000
10.44000 313.000
10.48000 295.000
10.52000 297.000
10.56000 293.000
10.60000 325.000
10.64000 344.000
10.68000 303.000
10.72000 300.000
10.76000 321.000
10.80000 291.000
10.84000 298.000
10.88000 288.000
10.92000 297.000
10.96000 333.000
11.00000 317.000
11.04000 310.000
11.08000 271.000
11.12000 304.000
11.16000 305.000
11.20000 307.000
11.24000 314.000
11.28000 341.000
11.32000 319.000
11.36000 298.000
11.40000 297.000
11.44000 291.000
11.48000 314.000
11.52000 288.000
11.56000 294.000
11.60000 302.000
11.64000 302.000
11.68000 331.000
11.72000 298.000
11.76000 299.000
11.80000 301.000
11.84000 298.000
11.88000 317.000
11.92000 310.000
11.96000 294.000
12.00000 281.000
12.04000 294.000
12.08000 321.000
12.12000 296.000
12.16000 291.000
12.20000 314.000
12.24000 337.000
12.28000 338.000
12.32000 313.000
12.36000 358.000
12.40000 326.000
12.44000 364.000
12.48000 355.000
12.52000 377.000
12.56000 330.000
12.60000 386.000
12.64000 390.000
12.68000 402.000
12.72000 412.000
12.76000 456.000
12.80000 403.000
12.84000 397.000
12.88000 366.000
12.92000 329.000
12.96000 379.000
13.00000 444.000
13.04000 408.000
13.08000 426.000
13.12000 452.000
13.16000 421.000
13.20000 477.000
13.24000 520.000
13.28000 552.000
13.32000 632.000
13.36000 713.000
13.40000 755.000
13.44000 891.000
13.48000 1052.000
13.52000 1197.000
13.56000 1282.000
13.60000 1296.000
13.64000 1521.000
13.68000 1683.000
13.72000 1988.000
13.76000 2368.000
13.80000 3027.000
13.84000 3944.000
13.88000 4997.000
13.92000 6702.000
13.96000 9041.000
14.00000 12562.000
14.04000 18412.000
14.08000 26911.000
14.12000 36002.000
14.16000 33668.000
14.20000 20933.000
14.24000 10195.000
14.28000 5396.000
14.32000 3069.000
14.36000 1918.000
14.40000 1128.000
14.44000 951.000
14.48000 713.000
14.52000 623.000
14.56000 550.000
14.60000 488.000
14.64000 501.000
14.68000 438.000
14.72000 454.000
14.76000 410.000
14.80000 426.000
14.84000 383.000
14.88000 403.000
14.92000 344.000
14.96000 356.000
15.00000 353.000
15.04000 311.000
15.08000 348.000
15.12000 302.000
15.16000 318.000
15.20000 306.000
15.24000 345.000
15.28000 294.000
15.32000 298.000
15.36000 319.000
15.40000 306.000
15.44000 322.000
15.48000 312.000
15.52000 276.000
15.56000 310.000
15.60000 328.000
15.64000 281.000
15.68000 291.000
15.72000 313.000
15.76000 291.000
15.80000 280.000
15.84000 283.000
15.88000 285.000
15.92000 287.000
15.96000 297.000
16.00000 285.000
16.04000 284.000
16.08000 305.000
16.12000 286.000
16.16000 267.000
16.20000 267.000
16.24000 293.000
16.28000 305.000
16.32000 285.000
16.36000 304.000
16.40000 307.000
16.44000 315.000
16.48000 255.000
16.52000 307.000
16.56000 292.000
16.60000 305.000
16.64000 287.000
16.68000 268.000
16.72000 297.000
16.76000 296.000
16.80000 273.000
16.84000 247.000
16.88000 294.000
16.92000 279.000
16.96000 294.000
17.00000 284.000
17.04000 299.000
17.08000 295.000
17.12000 290.000
17.16000 290.000
17.20000 286.000
17.24000 298.000
17.28000 286.000
17.32000 300.000
17.36000 315.000
17.40000 310.000
17.44000 299.000
17.48000 277.000
17.52000 297.000
17.56000 312.000
17.60000 299.000
17.64000 262.000
17.68000 273.000
17.72000 304.000
17.76000 302.000
17.80000 295.000
17.84000 266.000
17.88000 328.000
17.92000 281.000
17.96000 290.000
18.00000 311.000
18.04000 307.000
18.08000 320.000
18.12000 310.000
18.16000 319.000
18.20000 311.000
18.24000 297.000
18.28000 302.000
18.32000 319.000
18.36000 320.000
18.40000 332.000
18.44000 303.000
18.48000 338.000
18.52000 313.000
18.56000 319.000
18.60000 342.000
18.64000 298.000
18.68000 356.000
18.72000 342.000
18.76000 359.000
18.80000 324.000
18.84000 357.000
18.88000 329.000
18.92000 342.000
18.96000 396.000
19.00000 313.000
19.04000 322.000
19.08000 349.000
19.12000 350.000
19.16000 303.000
19.20000 325.000
19.24000 360.000
19.28000 353.000
19.32000 316.000
19.36000 354.000
19.40000 325.000
19.44000 351.000
19.48000 378.000
19.52000 330.000
19.56000 325.000
19.60000 347.000
19.64000 361.000
19.68000 369.000
19.72000 352.000
19.76000 356.000
19.80000 383.000
19.84000 370.000
19.88000 384.000
19.92000 340.000
19.96000 382.000
20.00000 375.000
20.04000 377.000
20.08000 379.000
20.12000 361.000
20.16000 360.000
20.20000 408.000
20.24000 362.000
20.28000 375.000
20.32000 399.000
20.36000 382.000
20.40000 368.000
20.44000 393.000
20.48000 358.000
20.52000 389.000
20.56000 374.000
20.60000 403.000
20.64000 368.000
20.68000 365.000
20.72000 388.000
20.76000 417.000
20.80000 426.000
20.84000 396.000
20.88000 376.000
20.92000 375.000
20.96000 424.000
21.00000 418.000
21.04000 359.000
21.08000 419.000
21.12000 402.000
21.16000 429.000
21.20000 414.000
21.24000 363.000
21.28000 375.000
21.32000 400.000
21.36000 359.000
21.40000 418.000
21.44000 448.000
21.48000 404.000
21.52000 427.000
21.56000 409.000
21.60000 398.000
21.64000 418.000
21.68000 445.000
21.72000 410.000
21.76000 401.000
21.80000 420.000
21.84000 469.000
21.88000 421.000
21.92000 435.000
21.96000 427.000
22.00000 440.000
22.04000 451.000
22.08000 447.000
22.12000 467.000
22.16000 430.000
22.20000 441.000
22.24000 488.000
22.28000 418.000
22.32000 435.000
22.36000 432.000
22.40000 433.000
22.44000 436.000
22.48000 421.000
22.52000 448.000
22.56000 430.000
22.60000 434.000
22.64000 437.000
22.68000 465.000
22.72000 447.000
22.76000 500.000
22.80000 447.000
22.84000 436.000
22.88000 472.000
22.92000 460.000
22.96000 453.000
23.00000 441.000
23.04000 462.000
23.08000 455.000
23.12000 462.000
23.16000 458.000
23.20000 452.000
23.24000 455.000
23.28000 453.000
23.32000 484.000
23.36000 456.000
23.40000 482.000
23.44000 492.000
23.48000 440.000
23.52000 446.000
23.56000 432.000
23.60000 454.000
23.64000 474.000
23.68000 453.000
23.72000 460.000
23.76000 438.000
23.80000 513.000
23.84000 486.000
23.88000 451.000
23.92000 448.000
23.96000 474.000
24.00000 437.000
24.04000 488.000
24.08000 446.000
24.12000 449.000
24.16000 493.000
24.20000 477.000
24.24000 479.000
24.28000 477.000
24.32000 481.000
24.36000 436.000
24.40000 475.000
24.44000 502.000
24.48000 536.000
24.52000 504.000
24.56000 546.000
24.60000 533.000
24.64000 569.000
24.68000 534.000
24.72000 516.000
24.76000 498.000
24.80000 449.000
24.84000 466.000
24.88000 460.000
24.92000 446.000
24.96000 462.000
25.00000 435.000
25.04000 471.000
25.08000 457.000
25.12000 447.000
25.16000 440.000
25.20000 462.000
25.24000 469.000
25.28000 424.000
25.32000 502.000
25.36000 465.000
25.40000 425.000
25.44000 426.000
25.48000 446.000
25.52000 473.000
25.56000 489.000
25.60000 537.000
25.64000 533.000
25.68000 530.000
25.72000 562.000
25.76000 536.000
25.80000 517.000
25.84000 458.000
25.88000 473.000
25.92000 451.000
25.96000 448.000
26.00000 459.000
26.04000 454.000
26.08000 433.000
26.12000 488.000
26.16000 460.000
26.20000 444.000
26.24000 444.000
26.28000 442.000
26.32000 418.000
26.36000 468.000
26.40000 478.000
26.44000 432.000
26.48000 472.000
26.52000 454.000
26.56000 463.000
26.60000 441.000
26.64000 464.000
26.68000 467.000
26.72000 439.000
26.76000 466.000
26.80000 447.000
26.84000 459.000
26.88000 472.000
26.92000 472.000
26.96000 479.000
27.00000 451.000
27.04000 552.000
27.08000 483.000
27.12000 539.000
27.16000 536.000
27.20000 681.000
27.24000 717.000
27.28000 914.000
27.32000 871.000
27.36000 742.000
27.40000 682.000
27.44000 628.000
27.48000 623.000
27.52000 609.000
27.56000 639.000
27.60000 633.000
27.64000 591.000
27.68000 634.000
27.72000 611.000
27.76000 595.000
27.80000 630.000
27.84000 647.000
27.88000 663.000
27.92000 711.000
27.96000 722.000
28.00000 744.000
28.04000 847.000
28.08000 1010.000
28.12000 1078.000
28.16000 1372.000
28.20000 1845.000
28.24000 2479.000
28.28000 3438.000
28.32000 4895.000
28.36000 6998.000
28.40000 10778.000
28.44000 17016.000
28.48000 27886.000
28.52000 39158.000
28.56000 38324.000
28.60000 28842.000
28.64000 17969.000
28.68000 9407.000
28.72000 4899.000
28.76000 2725.000
28.80000 1738.000
28.84000 1220.000
28.88000 879.000
28.92000 827.000
28.96000 717.000
29.00000 713.000
29.04000 622.000
29.08000 603.000
29.12000 549.000
29.16000 572.000
29.20000 543.000
29.24000 530.000
29.28000 521.000
29.32000 500.000
29.36000 476.000
29.40000 489.000
29.44000 480.000
29.48000 514.000
29.52000 466.000
29.56000 456.000
29.60000 470.000
29.64000 456.000
29.68000 469.000
29.72000 478.000
29.76000 462.000
29.80000 436.000
29.84000 414.000
29.88000 419.000
29.92000 382.000
29.96000 420.000
30.00000 409.000
30.04000 437.000
30.08000 466.000
30.12000 414.000
30.16000 408.000
30.20000 448.000
30.24000 422.000
30.28000 423.000
30.32000 366.000
30.36000 370.000
30.40000 412.000
30.44000 401.000
30.48000 410.000
30.52000 402.000
30.56000 384.000
30.60000 421.000
30.64000 383.000
30.68000 411.000
30.72000 391.000
30.76000 407.000
30.80000 368.000
30.84000 365.000
30.88000 370.000
30.92000 386.000
30.96000 391.000
31.00000 367.000
31.04000 361.000
31.08000 351.000
31.12000 411.000
31.16000 376.000
31.20000 387.000
31.24000 400.000
31.28000 367.000
31.32000 363.000
31.36000 368.000
31.40000 363.000
31.44000 371.000
31.48000 413.000
31.52000 382.000
31.56000 405.000
31.60000 423.000
31.64000 430.000
31.68000 441.000
31.72000 430.000
31.76000 506.000
31.80000 512.000
31.84000 605.000
31.88000 721.000
31.92000 861.000
31.96000 994.000
32.00000 962.000
32.04000 976.000
32.08000 751.000
32.12000 599.000
32.16000 479.000
32.20000 412.000
32.24000 393.000
32.28000 433.000
32.32000 351.000
32.36000 359.000
32.40000 354.000
32.44000 324.000
32.48000 349.000
32.52000 354.000
32.56000 350.000
32.60000 318.000
32.64000 334.000
32.68000 334.000
32.72000 369.000
32.76000 358.000
32.80000 358.000
32.84000 328.000
32.88000 334.000
32.92000 336.000
32.96000 310.000
33.00000 314.000
33.04000 334.000
33.08000 304.000
33.12000 333.000
33.16000 363.000
33.20000 324.000
33.24000 332.000
33.28000 311.000
33.32000 337.000
33.36000 286.000
33.40000 307.000
33.44000 303.000
33.48000 302.000
33.52000 305.000
33.56000 332.000
33.60000 326.000
33.64000 303.000
33.68000 295.000
33.72000 344.000
33.76000 287.000
33.80000 334.000
33.84000 322.000
33.88000 319.000
33.92000 341.000
33.96000 329.000
34.00000 294.000
34.04000 260.000
34.08000 292.000
34.12000 312.000
34.16000 300.000
34.20000 292.000
34.24000 279.000
34.28000 285.000
34.32000 282.000
34.36000 274.000
34.40000 262.000
34.44000 309.000
34.48000 311.000
34.52000 299.000
34.56000 286.000
34.60000 296.000
34.64000 287.000
34.68000 305.000
34.72000 267.000
34.76000 264.000
34.80000 270.000
34.84000 273.000
34.88000 267.000
34.92000 284.000
34.96000 283.000
35.00000 277.000
35.04000 266.000
35.08000 298.000
35.12000 310.000
35.16000 292.000
35.20000 264.000
35.24000 267.000
35.28000 248.000
35.32000 254.000
35.36000 242.000
35.40000 256.000
35.44000 258.000
35.48000 258.000
35.52000 263.000
35.56000 274.000
35.60000 253.000
35.64000 284.000
35.68000 280.000
35.72000 263.000
35.76000 264.000
35.80000 273.000
35.84000 281.000
35.88000 243.000
35.92000 227.000
35.96000 236.000
36.00000 245.000
36.04000 237.000
36.08000 254.000
36.12000 263.000
36.16000 233.000
36.20000 251.000
36.24000 263.000
36.28000 291.000
36.32000 259.000
36.36000 214.000
36.40000 245.000
36.44000 246.000
36.48000 242.000
36.52000 233.000
36.56000 230.000
36.60000 250.000
36.64000 232.000
36.68000 238.000
36.72000 247.000
36.76000 266.000
36.80000 239.000
36.84000 243.000
36.88000 233.000
36.92000 254.000
36.96000 210.000
37.00000 245.000
37.04000 218.000
37.08000 232.000
37.12000 202.000
37.16000 266.000
37.20000 221.000
37.24000 229.000
37.28000 238.000
37.32000 222.000
37.36000 230.000
37.40000 255.000
37.44000 227.000
37.48000 253.000
37.52000 212.000
37.56000 215.000
37.60000 223.000
37.64000 230.000
37.68000 230.000
37.72000 200.000
37.76000 240.000
37.80000 220.000
37.84000 241.000
37.88000 198.000
37.92000 231.000
37.96000 229.000
38.00000 223.000
38.04000 224.000
38.08000 230.000
38.12000 251.000
38.16000 218.000
38.20000 226.000
38.24000 232.000
38.28000 207.000
38.32000 212.000
38.36000 179.000
38.40000 207.000
38.44000 230.000
38.48000 192.000
38.52000 215.000
38.56000 213.000
38.60000 189.000
38.64000 224.000
38.68000 222.000
38.72000 186.000
38.76000 235.000
38.80000 233.000
38.84000 231.000
38.88000 207.000
38.92000 193.000
38.96000 232.000
39.00000 217.000
39.04000 191.000
39.08000 213.000
39.12000 238.000
39.16000 222.000
39.20000 235.000
39.24000 211.000
39.28000 223.000
39.32000 213.000
39.36000 207.000
39.40000 204.000
39.44000 226.000
39.48000 191.000
39.52000 218.000
39.56000 214.000
39.60000 180.000
39.64000 222.000
39.68000 205.000
39.72000 209.000
39.76000 190.000
39.80000 191.000
39.84000 212.000
39.88000 221.000
39.92000 231.000
39.96000 218.000
40.00000 230.000
40.04000 211.000
40.08000 213.000
40.12000 209.000
40.16000 213.000
40.20000 186.000
40.24000 220.000
40.28000 230.000
40.32000 209.000
40.36000 205.000
40.40000 219.000
40.44000 209.000
40.48000 209.000
40.52000 209.000
40.56000 232.000
40.60000 257.000
40.64000 260.000
40.68000 287.000
40.72000 309.000
40.76000 340.000
40.80000 378.000
40.84000 368.000
40.88000 346.000
40.92000 308.000
40.96000 290.000
41.00000 249.000
41.04000 241.000
41.08000 214.000
41.12000 184.000
41.16000 220.000
41.20000 201.000
41.24000 217.000
41.28000 228.000
41.32000 162.000
41.36000 211.000
41.40000 222.000
41.44000 207.000
41.48000 233.000
41.52000 239.000
41.56000 209.000
41.60000 221.000
41.64000 226.000
41.68000 231.000
41.72000 229.000
41.76000 212.000
41.80000 227.000
41.84000 221.000
41.88000 211.000
41.92000 227.000
41.96000 210.000
42.00000 197.000
42.04000 215.000
42.08000 233.000
42.12000 231.000
42.16000 250.000
42.20000 236.000
42.24000 204.000
42.28000 229.000
42.32000 200.000
42.36000 212.000
42.40000 202.000
42.44000 221.000
42.48000 222.000
42.52000 211.000
42.56000 250.000
42.60000 212.000
42.64000 226.000
42.68000 218.000
42.72000 234.000
42.76000 220.000
42.80000 244.000
42.84000 248.000
42.88000 233.000
42.92000 249.000
42.96000 237.000
43.00000 217.000
43.04000 231.000
43.08000 234.000
43.12000 305.000
43.16000 290.000
43.20000 287.000
43.24000 406.000
43.28000 426.000
43.32000 618.000
43.36000 829.000
43.40000 1140.000
43.44000 1153.000
43.48000 906.000
43.52000 787.000
43.56000 646.000
43.60000 461.000
43.64000 343.000
43.68000 294.000
43.72000 262.000
43.76000 223.000
43.80000 223.000
43.84000 231.000
43.88000 223.000
43.92000 218.000
43.96000 224.000
44.00000 233.000
44.04000 242.000
44.08000 228.000
44.12000 216.000
44.16000 196.000
44.20000 211.000
44.24000 204.000
44.28000 212.000
44.32000 238.000
44.36000 229.000
44.40000 200.000
44.44000 191.000
44.48000 226.000
44.52000 207.000
44.56000 232.000
44.60000 215.000
44.64000 221.000
44.68000 200.000
44.72000 214.000
44.76000 208.000
44.80000 186.000
44.84000 186.000
44.88000 233.000
44.92000 194.000
44.96000 209.000
45.00000 192.000
45.04000 192.000
45.08000 218.000
45.12000 192.000
45.16000 217.000
45.20000 207.000
45.24000 208.000
45.28000 209.000
45.32000 164.000
45.36000 228.000
45.40000 198.000
45.44000 214.000
45.48000 196.000
45.52000 201.000
45.56000 212.000
45.60000 189.000
45.64000 213.000
45.68000 198.000
45.72000 191.000
45.76000 170.000
45.80000 208.000
45.84000 218.000
45.88000 187.000
45.92000 203.000
45.96000 196.000
46.00000 202.000
46.04000 196.000
46.08000 198.000
46.12000 193.000
46.16000 187.000
46.20000 190.000
46.24000 194.000
46.28000 204.000
46.32000 176.000
46.36000 175.000
46.40000 189.000
46.44000 212.000
46.48000 218.000
46.52000 196.000
46.56000 180.000
46.60000 181.000
46.64000 223.000
46.68000 205.000
46.72000 216.000
46.76000 198.000
46.80000 203.000
46.84000 195.000
46.88000 196.000
46.92000 173.000
46.96000 189.000
47.00000 216.000
47.04000 219.000
47.08000 177.000
47.12000 219.000
47.16000 205.000
47.20000 178.000
47.24000 211.000
47.28000 205.000
47.32000 183.000
47.36000 175.000
47.40000 210.000
47.44000 199.000
47.48000 197.000
47.52000 207.000
47.56000 199.000
47.60000 207.000
47.64000 201.000
47.68000 192.000
47.72000 197.000
47.76000 207.000
47.80000 198.000
47.84000 220.000
47.88000 164.000
47.92000 188.000
47.96000 182.000
48.00000 198.000
48.04000 197.000
48.08000 227.000
48.12000 201.000
48.16000 199.000
48.20000 213.000
48.24000 245.000
48.28000 264.000
48.32000 252.000
48.36000 236.000
48.40000 219.000
48.44000 202.000
48.48000 216.000
48.52000 186.000
48.56000 180.000
48.60000 194.000
48.64000 175.000
48.68000 183.000
48.72000 173.000
48.76000 161.000
48.80000 210.000
48.84000 153.000
48.88000 178.000
48.92000 185.000
48.96000 184.000
49.00000 170.000
49.04000 187.000
49.08000 196.000
49.12000 179.000
49.16000 174.000
49.20000 189.000
49.24000 186.000
49.28000 181.000
49.32000 157.000
49.36000 175.000
49.40000 199.000
49.44000 199.000
49.48000 187.000
49.52000 180.000
49.56000 224.000
49.60000 159.000
49.64000 176.000
49.68000 204.000
49.72000 181.000
49.76000 191.000
49.80000 190.000
49.84000 202.000
49.88000 178.000
49.92000 186.000
49.96000 167.000
50.00000 168.000
50.04000 180.000
50.08000 167.000
50.12000 192.000
50.16000 185.000
50.20000 196.000
50.24000 200.000
50.28000 212.000
50.32000 181.000
50.36000 187.000
50.40000 187.000
50.44000 194.000
50.48000 176.000
50.52000 185.000
50.56000 189.000
50.60000 213.000
50.64000 191.000
50.68000 210.000
50.72000 192.000
50.76000 207.000
50.80000 200.000
50.84000 200.000
50.88000 182.000
50.92000 200.000
50.96000 169.000
51.00000 189.000
51.04000 177.000
51.08000 186.000
51.12000 176.000
51.16000 185.000
51.20000 168.000
51.24000 203.000
51.28000 179.000
51.32000 200.000
51.36000 182.000
51.40000 183.000
51.44000 186.000
51.48000 174.000
51.52000 188.000
51.56000 182.000
51.60000 177.000
51.64000 166.000
51.68000 181.000
51.72000 200.000
51.76000 173.000
51.80000 188.000
51.84000 176.000
51.88000 195.000
51.92000 177.000
51.96000 210.000
52.00000 208.000
52.04000 189.000
52.08000 173.000
52.12000 192.000
52.16000 191.000
52.20000 186.000
52.24000 202.000
52.28000 199.000
52.32000 160.000
52.36000 187.000
52.40000 184.000
52.44000 181.000
52.48000 188.000
52.52000 214.000
52.56000 176.000
52.60000 178.000
52.64000 199.000
52.68000 209.000
52.72000 211.000
52.76000 204.000
52.80000 181.000
52.84000 213.000
52.88000 187.000
52.92000 198.000
52.96000 212.000
53.00000 202.000
53.04000 182.000
53.08000 170.000
53.12000 167.000
53.16000 202.000
53.20000 190.000
53.24000 180.000
53.28000 187.000
53.32000 203.000
53.36000 189.000
53.40000 176.000
53.44000 164.000
53.48000 190.000
53.52000 171.000
53.56000 166.000
53.60000 161.000
53.64000 194.000
53.68000 169.000
53.72000 157.000
53.76000 181.000
53.80000 183.000
53.84000 195.000
53.88000 202.000
53.92000 164.000
53.96000 169.000
54.00000 167.000
54.04000 169.000
54.08000 195.000
54.12000 176.000
54.16000 170.000
54.20000 176.000
54.24000 184.000
54.28000 154.000
54.32000 186.000
54.36000 173.000
54.40000 176.000
54.44000 184.000
54.48000 190.000
54.52000 160.000
54.56000 169.000
54.60000 194.000
54.64000 172.000
54.68000 161.000
54.72000 172.000
54.76000 163.000
54.80000 177.000
54.84000 180.000
54.88000 185.000
54.92000 171.000
54.96000 198.000
55.00000 166.000
55.04000 168.000
55.08000 200.000
55.12000 172.000
55.16000 193.000
55.20000 177.000
55.24000 202.000
55.28000 173.000
55.32000 160.000
55.36000 181.000
55.40000 141.000
55.44000 187.000
55.48000 185.000
55.52000 172.000
55.56000 175.000
55.60000 206.000
55.64000 184.000
55.68000 176.000
55.72000 171.000
55.76000 190.000
55.80000 173.000
55.84000 181.000
55.88000 201.000
55.92000 183.000
55.96000 154.000
56.00000 199.000
56.04000 171.000
56.08000 185.000
56.12000 162.000
56.16000 195.000
56.20000 188.000
56.24000 170.000
56.28000 184.000
56.32000 183.000
56.36000 198.000
56.40000 211.000
56.44000 204.000
56.48000 170.000
56.52000 180.000
56.56000 205.000
56.60000 202.000
56.64000 191.000
56.68000 185.000
56.72000 182.000
56.76000 166.000
56.80000 187.000
56.84000 212.000
56.88000 200.000
56.92000 175.000
56.96000 185.000
57.00000 194.000
57.04000 201.000
57.08000 184.000
57.12000 198.000
57.16000 183.000
57.20000 168.000
57.24000 174.000
57.28000 180.000
57.32000 185.000
57.36000 177.000
57.40000 178.000
57.44000 187.000
57.48000 188.000
57.52000 190.000
57.56000 183.000
57.60000 195.000
57.64000 182.000
57.68000 176.000
57.72000 187.000
57.76000 206.000
57.80000 182.000
57.84000 183.000
57.88000 218.000
57.92000 206.000
57.96000 206.000
58.00000 231.000
58.04000 187.000
58.08000 195.000
58.12000 166.000
58.16000 190.000
58.20000 184.000
58.24000 193.000
58.28000 196.000
58.32000 180.000
58.36000 202.000
58.40000 227.000
58.44000 183.000
58.48000 195.000
58.52000 197.000
58.56000 227.000
58.60000 211.000
58.64000 200.000
58.68000 207.000
58.72000 234.000
58.76000 218.000
58.80000 218.000
58.84000 277.000
58.88000 309.000
58.92000 280.000
58.96000 423.000
59.00000 586.000
59.04000 817.000
59.08000 1317.000
59.12000 1584.000
59.16000 1408.000
59.20000 990.000
59.24000 956.000
59.28000 931.000
59.32000 758.000
59.36000 514.000
59.40000 378.000
59.44000 290.000
59.48000 236.000
59.52000 229.000
59.56000 228.000
59.60000 187.000
59.64000 231.000
59.68000 227.000
59.72000 217.000
59.76000 212.000
59.80000 176.000
59.84000 187.000
59.88000 204.000
59.92000 190.000
