10.00000 876.000
10.04000 802.000
10.08000 736.000
10.12000 784.000
10.16000 727.000
10.20000 669.000
10.24000 719.000
10.28000 738.000
10.32000 706.000
10.36000 709.000
10.40000 723.000
10.44000 700.000
10.48000 697.000
10.52000 680.000
10.56000 697.000
10.60000 788.000
10.64000 642.000
10.68000 646.000
10.72000 694.000
10.76000 680.000
10.80000 670.000
10.84000 687.000
10.88000 710.000
10.92000 676.000
10.96000 703.000
11.00000 677.000
11.04000 668.000
11.08000 661.000
11.12000 644.000
11.16000 677.000
11.20000 648.000
11.24000 704.000
11.28000 671.000
11.32000 641.000
11.36000 689.000
11.40000 675.000
11.44000 655.000
11.48000 678.000
11.52000 670.000
11.56000 658.000
11.60000 709.000
11.64000 667.000
11.68000 625.000
11.72000 720.000
11.76000 626.000
11.80000 670.000
11.84000 727.000
11.88000 699.000
11.92000 691.000
11.96000 741.000
12.00000 691.000
12.04000 744.000
12.08000 777.000
12.12000 810.000
12.16000 802.000
12.20000 870.000
12.24000 887.000
12.28000 956.000
12.32000 933.000
12.36000 1038.000
12.40000 1143.000
12.44000 1226.000
12.48000 1524.000
12.52000 1847.000
12.56000 2402.000
12.60000 2882.000
12.64000 3500.000
12.68000 3880.000
12.72000 4081.000
12.76000 4797.000
12.80000 6239.000
12.84000 7495.000
12.88000 7548.000
12.92000 5576.000
12.96000 3383.000
13.00000 2116.000
13.04000 1550.000
13.08000 1220.000
13.12000 1084.000
13.16000 942.000
13.20000 938.000
13.24000 933.000
13.28000 991.000
13.32000 1055.000
13.36000 1078.000
13.40000 1103.000
13.44000 1153.000
13.48000 1101.000
13.52000 1051.000
13.56000 1019.000
13.60000 959.000
13.64000 940.000
13.68000 963.000
13.72000 1000.000
13.76000 1029.000
13.80000 1064.000
13.84000 1062.000
13.88000 1309.000
13.92000 1429.000
13.96000 1695.000
14.00000 1975.000
14.04000 2584.000
14.08000 3207.000
14.12000 4346.000
14.16000 6380.000
14.20000 9926.000
14.24000 16393.000
14.28000 24480.000
14.32000 28055.000
14.36000 21261.000
14.40000 12132.000
14.44000 6702.000
14.48000 4011.000
14.52000 2659.000
14.56000 1929.000
14.60000 1559.000
14.64000 1520.000
14.68000 1603.000
14.72000 1833.000
14.76000 2285.000
14.80000 2748.000
14.84000 3219.000
14.88000 2755.000
14.92000 2102.000
14.96000 1465.000
15.00000 1107.000
15.04000 918.000
15.08000 812.000
15.12000 759.000
15.16000 757.000
15.20000 699.000
15.24000 675.000
15.28000 694.000
15.32000 632.000
15.36000 667.000
15.40000 630.000
15.44000 670.000
15.48000 581.000
15.52000 572.000
15.56000 581.000
15.60000 629.000
15.64000 608.000
15.68000 634.000
15.72000 608.000
15.76000 573.000
15.80000 627.000
15.84000 592.000
15.88000 608.000
15.92000 593.000
15.96000 624.000
16.00000 616.000
16.04000 586.000
16.08000 627.000
16.12000 608.000
16.16000 598.000
16.20000 610.000
16.24000 627.000
16.28000 658.000
16.32000 618.000
16.36000 596.000
16.40000 601.000
16.44000 649.000
16.48000 676.000
16.52000 651.000
16.56000 559.000
16.60000 614.000
16.64000 624.000
16.68000 653.000
16.72000 667.000
16.76000 625.000
16.80000 621.000
16.84000 654.000
16.88000 621.000
16.92000 626.000
16.96000 647.000
17.00000 651.000
17.04000 613.000
17.08000 655.000
17.12000 671.000
17.16000 693.000
17.20000 723.000
17.24000 663.000
17.28000 573.000
17.32000 652.000
17.36000 659.000
17.40000 643.000
17.44000 671.000
17.48000 622.000
17.52000 703.000
17.56000 657.000
17.60000 671.000
17.64000 665.000
17.68000 715.000
17.72000 686.000
17.76000 668.000
17.80000 705.000
17.84000 685.000
17.88000 700.000
17.92000 695.000
17.96000 665.000
18.00000 695.000
18.04000 677.000
18.08000 664.000
18.12000 675.000
18.16000 650.000
18.20000 721.000
18.24000 705.000
18.28000 721.000
18.32000 682.000
18.36000 716.000
18.40000 720.000
18.44000 665.000
18.48000 707.000
18.52000 755.000
18.56000 758.000
18.60000 747.000
18.64000 796.000
18.68000 734.000
18.72000 757.000
18.76000 756.000
18.80000 734.000
18.84000 716.000
18.88000 718.000
18.92000 745.000
18.96000 713.000
19.00000 758.000
19.04000 768.000
19.08000 805.000
19.12000 711.000
19.16000 794.000
19.20000 768.000
19.24000 793.000
19.28000 798.000
19.32000 806.000
19.36000 800.000
19.40000 815.000
19.44000 834.000
19.48000 847.000
19.52000 867.000
19.56000 952.000
19.60000 1030.000
19.64000 1141.000
19.68000 1356.000
19.72000 1463.000
19.76000 1559.000
19.80000 1336.000
19.84000 1261.000
19.88000 1040.000
19.92000 1023.000
19.96000 956.000
20.00000 968.000
20.04000 996.000
20.08000 945.000
20.12000 890.000
20.16000 863.000
20.20000 892.000
20.24000 842.000
20.28000 847.000
20.32000 828.000
20.36000 859.000
20.40000 838.000
20.44000 881.000
20.48000 849.000
20.52000 850.000
20.56000 844.000
20.60000 844.000
20.64000 817.000
20.68000 846.000
20.72000 856.000
20.76000 864.000
20.80000 839.000
20.84000 865.000
20.88000 883.000
20.92000 866.000
20.96000 921.000
21.00000 916.000
21.04000 905.000
21.08000 909.000
21.12000 936.000
21.16000 946.000
21.20000 838.000
21.24000 831.000
21.28000 897.000
21.32000 899.000
21.36000 894.000
21.40000 916.000
21.44000 981.000
21.48000 966.000
21.52000 966.000
21.56000 955.000
21.60000 921.000
21.64000 974.000
21.68000 913.000
21.72000 917.000
21.76000 1000.000
21.80000 904.000
21.84000 953.000
21.88000 998.000
21.92000 943.000
21.96000 999.000
22.00000 926.000
22.04000 975.000
22.08000 979.000
22.12000 977.000
22.16000 966.000
22.20000 1029.000
22.24000 940.000
22.28000 945.000
22.32000 1001.000
22.36000 1022.000
22.40000 912.000
22.44000 954.000
22.48000 982.000
22.52000 984.000
22.56000 961.000
22.60000 954.000
22.64000 1055.000
22.68000 950.000
22.72000 1009.000
22.76000 1012.000
22.80000 973.000
22.84000 1004.000
22.88000 959.000
22.92000 1019.000
22.96000 985.000
23.00000 1036.000
23.04000 996.000
23.08000 1020.000
23.12000 1028.000
23.16000 988.000
23.20000 1113.000
23.24000 1062.000
23.28000 1057.000
23.32000 1093.000
23.36000 1056.000
23.40000 1039.000
23.44000 1009.000
23.48000 1055.000
23.52000 1055.000
23.56000 1031.000
23.60000 1072.000
23.64000 1026.000
23.68000 989.000
23.72000 962.000
23.76000 1108.000
23.80000 1090.000
23.84000 1022.000
23.88000 1073.000
23.92000 1039.000
23.96000 1110.000
24.00000 1084.000
24.04000 1061.000
24.08000 1116.000
24.12000 1046.000
24.16000 1051.000
24.20000 1069.000
24.24000 1119.000
24.28000 1116.000
24.32000 1103.000
24.36000 1082.000
24.40000 1042.000
24.44000 1089.000
24.48000 1172.000
24.52000 1175.000
24.56000 1241.000
24.60000 1285.000
24.64000 1306.000
24.68000 1387.000
24.72000 1479.000
24.76000 1459.000
24.80000 1522.000
24.84000 1574.000
24.88000 1492.000
24.92000 1388.000
24.96000 1392.000
25.00000 1315.000
25.04000 1353.000
25.08000 1454.000
25.12000 1508.000
25.16000 1663.000
25.20000 1911.000
25.24000 2110.000
25.28000 2363.000
25.32000 2472.000
25.36000 2497.000
25.40000 2468.000
25.44000 2500.000
25.48000 2621.000
25.52000 2993.000
25.56000 3642.000
25.60000 5067.000
25.64000 6962.000
25.68000 9807.000
25.72000 12722.000
25.76000 14142.000
25.80000 12482.000
25.84000 9293.000
25.88000 6268.000
25.92000 4166.000
25.96000 2906.000
26.00000 2194.000
26.04000 1851.000
26.08000 1591.000
26.12000 1432.000
26.16000 1353.000
26.20000 1305.000
26.24000 1259.000
26.28000 1197.000
26.32000 1250.000
26.36000 1225.000
26.40000 1224.000
26.44000 1206.000
26.48000 1232.000
26.52000 1179.000
26.56000 1084.000
26.60000 1119.000
26.64000 1039.000
26.68000 1087.000
26.72000 1072.000
26.76000 1062.000
26.80000 1044.000
26.84000 1036.000
26.88000 992.000
26.92000 1048.000
26.96000 1035.000
27.00000 1028.000
27.04000 982.000
27.08000 1050.000
27.12000 1026.000
27.16000 1060.000
27.20000 1070.000
27.24000 1073.000
27.28000 998.000
27.32000 1057.000
27.36000 1006.000
27.40000 1053.000
27.44000 1054.000
27.48000 1048.000
27.52000 1046.000
27.56000 1012.000
27.60000 1096.000
27.64000 1088.000
27.68000 1000.000
27.72000 1051.000
27.76000 1059.000
27.80000 1094.000
27.84000 1069.000
27.88000 1118.000
27.92000 1079.000
27.96000 1163.000
28.00000 1155.000
28.04000 1142.000
28.08000 1150.000
28.12000 1200.000
28.16000 1235.000
28.20000 1291.000
28.24000 1231.000
28.28000 1338.000
28.32000 1352.000
28.36000 1509.000
28.40000 1673.000
28.44000 1925.000
28.48000 2419.000
28.52000 3408.000
28.56000 4873.000
28.60000 7454.000
28.64000 11932.000
28.68000 18079.000
28.72000 21823.000
28.76000 19553.000
28.80000 14498.000
28.84000 9210.000
28.88000 5503.000
28.92000 3562.000
28.96000 2515.000
29.00000 1870.000
29.04000 1459.000
29.08000 1380.000
29.12000 1351.000
29.16000 1154.000
29.20000 1130.000
29.24000 1205.000
29.28000 1137.000
29.32000 1111.000
29.36000 1142.000
29.40000 1198.000
29.44000 1162.000
29.48000 1205.000
29.52000 1264.000
29.56000 1303.000
29.60000 1504.000
29.64000 1734.000
29.68000 2043.000
29.72000 2556.000
29.76000 2965.000
29.80000 3136.000
29.84000 3133.000
29.88000 2585.000
29.92000 2104.000
29.96000 1743.000
30.00000 1449.000
30.04000 1282.000
30.08000 1161.000
30.12000 1105.000
30.16000 1004.000
30.20000 974.000
30.24000 967.000
30.28000 941.000
30.32000 914.000
30.36000 939.000
30.40000 936.000
30.44000 906.000
30.48000 911.000
30.52000 897.000
30.56000 960.000
30.60000 900.000
30.64000 918.000
30.68000 881.000
30.72000 854.000
30.76000 882.000
30.80000 869.000
30.84000 893.000
30.88000 876.000
30.92000 809.000
30.96000 855.000
31.00000 774.000
31.04000 802.000
31.08000 823.000
31.12000 836.000
31.16000 726.000
31.20000 859.000
31.24000 847.000
31.28000 895.000
31.32000 819.000
31.36000 812.000
31.40000 803.000
31.44000 852.000
31.48000 794.000
31.52000 776.000
31.56000 845.000
31.60000 845.000
31.64000 826.000
31.68000 804.000
31.72000 826.000
31.76000 856.000
31.80000 855.000
31.84000 814.000
31.88000 809.000
31.92000 822.000
31.96000 834.000
32.00000 826.000
32.04000 819.000
32.08000 815.000
32.12000 828.000
32.16000 770.000
32.20000 783.000
32.24000 818.000
32.28000 829.000
32.32000 762.000
32.36000 760.000
32.40000 777.000
32.44000 750.000
32.48000 743.000
32.52000 808.000
32.56000 772.000
32.60000 744.000
32.64000 748.000
32.68000 731.000
32.72000 764.000
32.76000 719.000
32.80000 730.000
32.84000 705.000
32.88000 751.000
32.92000 703.000
32.96000 727.000
33.00000 721.000
33.04000 668.000
33.08000 758.000
33.12000 722.000
33.16000 761.000
33.20000 719.000
33.24000 713.000
33.28000 783.000
33.32000 760.000
33.36000 779.000
33.40000 722.000
33.44000 757.000
33.48000 783.000
33.52000 771.000
33.56000 756.000
33.60000 721.000
33.64000 689.000
33.68000 707.000
33.72000 708.000
33.76000 786.000
33.80000 726.000
33.84000 656.000
33.88000 720.000
33.92000 659.000
33.96000 666.000
34.00000 678.000
34.04000 666.000
34.08000 650.000
34.12000 651.000
34.16000 684.000
34.20000 676.000
34.24000 712.000
34.28000 662.000
34.32000 646.000
34.36000 662.000
34.40000 672.000
34.44000 672.000
34.48000 650.000
34.52000 660.000
34.56000 649.000
34.60000 643.000
34.64000 634.000
34.68000 623.000
34.72000 646.000
34.76000 663.000
34.80000 596.000
34.84000 670.000
34.88000 598.000
34.92000 603.000
34.96000 649.000
35.00000 589.000
35.04000 621.000
35.08000 622.000
35.12000 556.000
35.16000 593.000
35.20000 568.000
35.24000 595.000
35.28000 603.000
35.32000 606.000
35.36000 579.000
35.40000 551.000
35.44000 590.000
35.48000 546.000
35.52000 553.000
35.56000 548.000
35.60000 587.000
35.64000 605.000
35.68000 553.000
35.72000 552.000
35.76000 564.000
35.80000 529.000
35.84000 570.000
35.88000 543.000
35.92000 563.000
35.96000 565.000
36.00000 588.000
36.04000 561.000
36.08000 570.000
36.12000 507.000
36.16000 545.000
36.20000 539.000
36.24000 543.000
36.28000 584.000
36.32000 533.000
36.36000 585.000
36.40000 560.000
36.44000 523.000
36.48000 498.000
36.52000 539.000
36.56000 503.000
36.60000 507.000
36.64000 527.000
36.68000 533.000
36.72000 567.000
36.76000 495.000
36.80000 479.000
36.84000 519.000
36.88000 492.000
36.92000 490.000
36.96000 497.000
37.00000 491.000
37.04000 512.000
37.08000 524.000
37.12000 497.000
37.16000 544.000
37.20000 499.000
37.24000 492.000
37.28000 484.000
37.32000 502.000
37.36000 507.000
37.40000 484.000
37.44000 530.000
37.48000 510.000
37.52000 455.000
37.56000 470.000
37.60000 474.000
37.64000 473.000
37.68000 503.000
37.72000 468.000
37.76000 478.000
37.80000 486.000
37.84000 450.000
37.88000 487.000
37.92000 473.000
37.96000 483.000
38.00000 455.000
38.04000 491.000
38.08000 498.000
38.12000 458.000
38.16000 465.000
38.20000 495.000
38.24000 459.000
38.28000 475.000
38.32000 463.000
38.36000 457.000
38.40000 461.000
38.44000 466.000
38.48000 479.000
38.52000 478.000
38.56000 479.000
38.60000 510.000
38.64000 490.000
38.68000 515.000
38.72000 504.000
38.76000 486.000
38.80000 531.000
38.84000 528.000
38.88000 522.000
38.92000 543.000
38.96000 558.000
39.00000 554.000
39.04000 547.000
39.08000 497.000
39.12000 504.000
39.16000 510.000
39.20000 427.000
39.24000 464.000
39.28000 479.000
39.32000 470.000
39.36000 489.000
39.40000 439.000
39.44000 447.000
39.48000 422.000
39.52000 449.000
39.56000 403.000
39.60000 423.000
39.64000 458.000
39.68000 458.000
39.72000 419.000
39.76000 479.000
39.80000 442.000
39.84000 444.000
39.88000 459.000
39.92000 408.000
39.96000 413.000
40.00000 450.000
40.04000 437.000
40.08000 452.000
40.12000 447.000
40.16000 449.000
40.20000 450.000
40.24000 489.000
40.28000 454.000
40.32000 498.000
40.36000 461.000
40.40000 473.000
40.44000 421.000
40.48000 463.000
40.52000 455.000
40.56000 480.000
40.60000 436.000
40.64000 422.000
40.68000 459.000
40.72000 500.000
40.76000 440.000
40.80000 416.000
40.84000 478.000
40.88000 465.000
40.92000 467.000
40.96000 455.000
41.00000 431.000
41.04000 439.000
41.08000 444.000
41.12000 442.000
41.16000 420.000
41.20000 443.000
41.24000 415.000
41.28000 444.000
41.32000 462.000
41.36000 424.000
41.40000 408.000
41.44000 453.000
41.48000 416.000
41.52000 466.000
41.56000 451.000
41.60000 425.000
41.64000 458.000
41.68000 481.000
41.72000 498.000
41.76000 472.000
41.80000 469.000
41.84000 453.000
41.88000 438.000
41.92000 447.000
41.96000 429.000
42.00000 423.000
42.04000 422.000
42.08000 487.000
42.12000 419.000
42.16000 437.000
42.20000 447.000
42.24000 442.000
42.28000 450.000
42.32000 453.000
42.36000 474.000
42.40000 463.000
42.44000 454.000
42.48000 475.000
42.52000 491.000
42.56000 501.000
42.60000 509.000
42.64000 548.000
42.68000 515.000
42.72000 518.000
42.76000 498.000
42.80000 472.000
42.84000 498.000
42.88000 465.000
42.92000 470.000
42.96000 451.000
43.00000 460.000
43.04000 462.000
43.08000 468.000
43.12000 460.000
43.16000 467.000
43.20000 458.000
43.24000 470.000
43.28000 483.000
43.32000 474.000
43.36000 475.000
43.40000 507.000
43.44000 489.000
43.48000 600.000
43.52000 610.000
43.56000 708.000
43.60000 858.000
43.64000 800.000
43.68000 731.000
43.72000 710.000
43.76000 672.000
43.80000 565.000
43.84000 547.000
43.88000 500.000
43.92000 465.000
43.96000 471.000
44.00000 448.000
44.04000 470.000
44.08000 432.000
44.12000 479.000
44.16000 445.000
44.20000 461.000
44.24000 455.000
44.28000 478.000
44.32000 436.000
44.36000 469.000
44.40000 406.000
44.44000 490.000
44.48000 438.000
44.52000 425.000
44.56000 441.000
44.60000 459.000
44.64000 427.000
44.68000 455.000
44.72000 427.000
44.76000 471.000
44.80000 424.000
44.84000 473.000
44.88000 428.000
44.92000 407.000
44.96000 436.000
45.00000 463.000
45.04000 479.000
45.08000 469.000
45.12000 462.000
45.16000 462.000
45.20000 507.000
45.24000 517.000
45.28000 548.000
45.32000 544.000
45.36000 509.000
45.40000 576.000
45.44000 510.000
45.48000 511.000
45.52000 472.000
45.56000 437.000
45.60000 417.000
45.64000 426.000
45.68000 442.000
45.72000 457.000
45.76000 446.000
45.80000 434.000
45.84000 399.000
45.88000 405.000
45.92000 408.000
45.96000 470.000
46.00000 443.000
46.04000 406.000
46.08000 396.000
46.12000 400.000
46.16000 440.000
46.20000 422.000
46.24000 409.000
46.28000 392.000
46.32000 423.000
46.36000 403.000
46.40000 404.000
46.44000 406.000
46.48000 423.000
46.52000 439.000
46.56000 395.000
46.60000 404.000
46.64000 417.000
46.68000 451.000
46.72000 449.000
46.76000 412.000
46.80000 430.000
46.84000 414.000
46.88000 457.000
46.92000 410.000
46.96000 438.000
47.00000 404.000
47.04000 416.000
47.08000 414.000
47.12000 395.000
47.16000 450.000
47.20000 390.000
47.24000 395.000
47.28000 434.000
47.32000 400.000
47.36000 433.000
47.40000 443.000
47.44000 424.000
47.48000 423.000
47.52000 388.000
47.56000 426.000
47.60000 426.000
47.64000 401.000
47.68000 404.000
47.72000 415.000
47.76000 397.000
47.80000 434.000
47.84000 359.000
47.88000 365.000
47.92000 405.000
47.96000 403.000
48.00000 409.000
48.04000 410.000
48.08000 445.000
48.12000 358.000
48.16000 389.000
48.20000 390.000
48.24000 372.000
48.28000 363.000
48.32000 385.000
48.36000 374.000
48.40000 369.000
48.44000 384.000
48.48000 401.000
48.52000 406.000
48.56000 390.000
48.60000 369.000
48.64000 381.000
48.68000 389.000
48.72000 384.000
48.76000 357.000
48.80000 392.000
48.84000 395.000
48.88000 411.000
48.92000 384.000
48.96000 354.000
49.00000 396.000
49.04000 403.000
49.08000 404.000
49.12000 366.000
49.16000 405.000
49.20000 427.000
49.24000 393.000
49.28000 427.000
49.32000 361.000
49.36000 378.000
49.40000 393.000
49.44000 397.000
49.48000 390.000
49.52000 382.000
49.56000 417.000
49.60000 392.000
49.64000 372.000
49.68000 387.000
49.72000 374.000
49.76000 424.000
49.80000 423.000
49.84000 402.000
49.88000 387.000
49.92000 446.000
49.96000 418.000
50.00000 424.000
50.04000 393.000
50.08000 386.000
50.12000 409.000
50.16000 404.000
50.20000 403.000
50.24000 388.000
50.28000 424.000
50.32000 368.000
50.36000 430.000
50.40000 399.000
50.44000 443.000
50.48000 458.000
50.52000 453.000
50.56000 437.000
50.60000 412.000
50.64000 393.000
50.68000 444.000
50.72000 442.000
50.76000 472.000
50.80000 409.000
50.84000 434.000
50.88000 386.000
50.92000 408.000
50.96000 417.000
51.00000 452.000
51.04000 396.000
51.08000 375.000
51.12000 397.000
51.16000 394.000
51.20000 421.000
51.24000 385.000
51.28000 418.000
51.32000 419.000
51.36000 389.000
51.40000 388.000
51.44000 401.000
51.48000 408.000
51.52000 397.000
51.56000 420.000
51.60000 402.000
51.64000 387.000
51.68000 410.000
51.72000 407.000
51.76000 406.000
51.80000 413.000
51.84000 413.000
51.88000 439.000
51.92000 418.000
51.96000 427.000
52.00000 415.000
52.04000 423.000
52.08000 447.000
52.12000 387.000
52.16000 406.000
52.20000 417.000
52.24000 465.000
52.28000 411.000
52.32000 432.000
52.36000 433.000
52.40000 419.000
52.44000 436.000
52.48000 436.000
52.52000 476.000
52.56000 503.000
52.60000 499.000
52.64000 553.000
52.68000 729.000
52.72000 788.000
52.76000 959.000
52.80000 1001.000
52.84000 915.000
52.88000 942.000
52.92000 856.000
52.96000 797.000
53.00000 711.000
53.04000 589.000
53.08000 542.000
53.12000 493.000
53.16000 460.000
53.20000 457.000
53.24000 429.000
53.28000 422.000
53.32000 390.000
53.36000 401.000
53.40000 433.000
53.44000 394.000
53.48000 391.000
53.52000 401.000
53.56000 396.000
53.60000 374.000
53.64000 402.000
53.68000 387.000
53.72000 418.000
53.76000 388.000
53.80000 406.000
53.84000 397.000
53.88000 387.000
53.92000 393.000
53.96000 389.000
54.00000 405.000
54.04000 415.000
54.08000 431.000
54.12000 389.000
54.16000 430.000
54.20000 407.000
54.24000 380.000
54.28000 417.000
54.32000 403.000
54.36000 416.000
54.40000 403.000
54.44000 367.000
54.48000 408.000
54.52000 398.000
54.56000 394.000
54.60000 430.000
54.64000 373.000
54.68000 387.000
54.72000 408.000
54.76000 388.000
54.80000 404.000
54.84000 372.000
54.88000 385.000
54.92000 374.000
54.96000 387.000
55.00000 448.000
55.04000 397.000
55.08000 356.000
55.12000 381.000
55.16000 397.000
55.20000 379.000
55.24000 379.000
55.28000 426.000
55.32000 374.000
55.36000 364.000
55.40000 396.000
55.44000 410.000
55.48000 410.000
55.52000 391.000
55.56000 377.000
55.60000 331.000
55.64000 381.000
55.68000 412.000
55.72000 387.000
55.76000 377.000
55.80000 382.000
55.84000 395.000
55.88000 400.000
55.92000 405.000
55.96000 375.000
56.00000 375.000
56.04000 393.000
56.08000 371.000
56.12000 392.000
56.16000 391.000
56.20000 408.000
56.24000 421.000
56.28000 370.000
56.32000 406.000
56.36000 346.000
56.40000 389.000
56.44000 394.000
56.48000 404.000
56.52000 375.000
56.56000 351.000
56.60000 407.000
56.64000 351.000
56.68000 422.000
56.72000 377.000
56.76000 402.000
56.80000 390.000
56.84000 366.000
56.88000 380.000
56.92000 394.000
56.96000 419.000
57.00000 415.000
57.04000 417.000
57.08000 400.000
57.12000 360.000
57.16000 352.000
57.20000 395.000
57.24000 381.000
57.28000 448.000
57.32000 389.000
57.36000 393.000
57.40000 419.000
57.44000 385.000
57.48000 365.000
57.52000 391.000
57.56000 373.000
57.60000 391.000
57.64000 371.000
57.68000 380.000
57.72000 360.000
57.76000 370.000
57.80000 361.000
57.84000 361.000
57.88000 389.000
57.92000 378.000
57.96000 383.000
58.00000 404.000
58.04000 379.000
58.08000 387.000
58.12000 342.000
58.16000 385.000
58.20000 400.000
58.24000 418.000
58.28000 411.000
58.32000 380.000
58.36000 398.000
58.40000 401.000
58.44000 369.000
58.48000 390.000
58.52000 356.000
58.56000 405.000
58.60000 397.000
58.64000 384.000
58.68000 375.000
58.72000 366.000
58.76000 400.000
58.80000 382.000
58.84000 388.000
58.88000 396.000
58.92000 422.000
58.96000 400.000
59.00000 418.000
59.04000 440.000
59.08000 432.000
59.12000 460.000
59.16000 498.000
59.20000 565.000
59.24000 669.000
59.28000 805.000
59.32000 854.000
59.36000 766.000
59.40000 744.000
59.44000 692.000
59.48000 705.000
59.52000 625.000
59.56000 563.000
59.60000 485.000
59.64000 455.000
59.68000 438.000
59.72000 423.000
59.76000 381.000
59.80000 364.000
59.84000 376.000
59.88000 386.000
59.92000 371.000
59.96000 376.000
60.00000 359.000
60.04000 397.000
60.08000 401.000
60.12000 393.000
60.16000 389.000
60.20000 360.000
60.24000 378.000
60.28000 368.000
60.32000 376.000
60.36000 370.000
60.40000 367.000
60.44000 394.000
60.48000 401.000
60.52000 341.000
60.56000 390.000
60.60000 370.000
60.64000 400.000
60.68000 368.000
60.72000 361.000
60.76000 383.000
60.80000 405.000
60.84000 365.000
60.88000 398.000
60.92000 380.000
60.96000 376.000
61.00000 380.000
61.04000 372.000
61.08000 358.000
61.12000 364.000
61.16000 378.000
61.20000 383.000
61.24000 376.000
61.28000 399.000
61.32000 420.000
61.36000 344.000
61.40000 376.000
61.44000 388.000
61.48000 371.000
61.52000 391.000
61.56000 374.000
61.60000 388.000
61.64000 410.000
61.68000 427.000
61.72000 402.000
61.76000 432.000
61.80000 376.000
61.84000 382.000
61.88000 417.000
61.92000 393.000
61.96000 382.000
62.00000 380.000
62.04000 384.000
62.08000 389.000
62.12000 390.000
62.16000 400.000
62.20000 369.000
62.24000 371.000
62.28000 378.000
62.32000 398.000
62.36000 344.000
62.40000 346.000
62.44000 369.000
62.48000 347.000
62.52000 399.000
62.56000 353.000
62.60000 375.000
62.64000 388.000
62.68000 339.000
62.72000 385.000
62.76000 355.000
62.80000 377.000
62.84000 360.000
62.88000 427.000
62.92000 389.000
62.96000 348.000
63.00000 358.000
63.04000 347.000
63.08000 365.000
63.12000 377.000
63.16000 370.000
63.20000 368.000
63.24000 350.000
63.28000 356.000
63.32000 343.000
63.36000 390.000
63.40000 382.000
63.44000 338.000
63.48000 360.000
63.52000 339.000
63.56000 401.000
63.60000 349.000
63.64000 341.000
63.68000 338.000
63.72000 388.000
63.76000 400.000
63.80000 365.000
63.84000 359.000
63.88000 364.000
63.92000 362.000
63.96000 370.000
64.00000 406.000
64.04000 353.000
64.08000 405.000
64.12000 374.000
64.16000 353.000
64.20000 356.000
64.24000 373.000
64.28000 335.000
64.32000 320.000
64.36000 354.000
64.40000 331.000
64.44000 389.000
64.48000 336.000
64.52000 341.000
64.56000 353.000
64.60000 358.000
64.64000 351.000
64.68000 371.000
64.72000 354.000
64.76000 359.000
64.80000 377.000
64.84000 320.000
64.88000 364.000
64.92000 343.000
64.96000 361.000
65.00000 374.000
65.04000 349.000
65.08000 347.000
65.12000 342.000
65.16000 362.000
65.20000 364.000
65.24000 375.000
65.28000 336.000
65.32000 333.000
65.36000 343.000
65.40000 367.000
65.44000 342.000
65.48000 378.000
65.52000 304.000
65.56000 338.000
65.60000 346.000
65.64000 359.000
65.68000 335.000
65.72000 296.000
65.76000 331.000
65.80000 309.000
65.84000 334.000
65.88000 359.000
65.92000 364.000
65.96000 347.000
66.00000 336.000
66.04000 349.000
66.08000 361.000
66.12000 328.000
66.16000 323.000
66.20000 357.000
66.24000 349.000
66.28000 340.000
66.32000 355.000
66.36000 337.000
66.40000 357.000
66.44000 306.000
66.48000 319.000
66.52000 354.000
66.56000 359.000
66.60000 328.000
66.64000 399.000
66.68000 334.000
66.72000 355.000
66.76000 342.000
66.80000 317.000
66.84000 318.000
66.88000 338.000
66.92000 341.000
66.96000 321.000
67.00000 321.000
67.04000 372.000
67.08000 375.000
67.12000 305.000
67.16000 339.000
67.20000 345.000
67.24000 342.000
67.28000 326.000
67.32000 387.000
67.36000 340.000
67.40000 365.000
67.44000 370.000
67.48000 319.000
67.52000 385.000
67.56000 345.000
67.60000 369.000
67.64000 307.000
67.68000 355.000
67.72000 339.000
67.76000 315.000
67.80000 328.000
67.84000 355.000
67.88000 303.000
67.92000 352.000
67.96000 380.000
68.00000 336.000
68.04000 361.000
68.08000 339.000
68.12000 312.000
68.16000 312.000
68.20000 325.000
68.24000 316.000
68.28000 360.000
68.32000 324.000
68.36000 324.000
68.40000 350.000
68.44000 321.000
68.48000 339.000
68.52000 369.000
68.56000 320.000
68.60000 315.000
68.64000 341.000
68.68000 320.000
68.72000 338.000
68.76000 320.000
68.80000 319.000
68.84000 331.000
68.88000 288.000
68.92000 312.000
68.96000 326.000
69.00000 356.000
69.04000 333.000
69.08000 300.000
69.12000 283.000
69.16000 308.000
69.20000 309.000
69.24000 320.000
69.28000 317.000
69.32000 361.000
69.36000 340.000
69.40000 320.000
69.44000 324.000
69.48000 317.000
69.52000 316.000
69.56000 334.000
69.60000 315.000
69.64000 306.000
69.68000 272.000
69.72000 316.000
69.76000 287.000
69.80000 297.000
69.84000 283.000
69.88000 310.000
69.92000 284.000
