10.00000 1804.000
10.04000 1269.000
10.08000 1092.000
10.12000 925.000
10.16000 823.000
10.20000 826.000
10.24000 770.000
10.28000 705.000
10.32000 771.000
10.36000 733.000
10.40000 743.000
10.44000 747.000
10.48000 735.000
10.52000 738.000
10.56000 725.000
10.60000 700.000
10.64000 687.000
10.68000 703.000
10.72000 731.000
10.76000 678.000
10.80000 706.000
10.84000 677.000
10.88000 718.000
10.92000 670.000
10.96000 691.000
11.00000 743.000
11.04000 717.000
11.08000 700.000
11.12000 663.000
11.16000 768.000
11.20000 709.000
11.24000 696.000
11.28000 696.000
11.32000 730.000
11.36000 670.000
11.40000 700.000
11.44000 701.000
11.48000 708.000
11.52000 647.000
11.56000 719.000
11.60000 686.000
11.64000 686.000
11.68000 724.000
11.72000 704.000
11.76000 733.000
11.80000 761.000
11.84000 707.000
11.88000 747.000
11.92000 760.000
11.96000 758.000
12.00000 766.000
12.04000 763.000
12.08000 724.000
12.12000 728.000
12.16000 769.000
12.20000 792.000
12.24000 851.000
12.28000 884.000
12.32000 878.000
12.36000 829.000
12.40000 978.000
12.44000 981.000
12.48000 1128.000
12.52000 1346.000
12.56000 1654.000
12.60000 2217.000
12.64000 2637.000
12.68000 2973.000
12.72000 3171.000
12.76000 3680.000
12.80000 4715.000
12.84000 6114.000
12.88000 6519.000
12.92000 5180.000
12.96000 3317.000
13.00000 2256.000
13.04000 1692.000
13.08000 1282.000
13.12000 1259.000
13.16000 1179.000
13.20000 1161.000
13.24000 1183.000
13.28000 1274.000
13.32000 1284.000
13.36000 1368.000
13.40000 1461.000
13.44000 1478.000
13.48000 1522.000
13.52000 1476.000
13.56000 1448.000
13.60000 1467.000
13.64000 1610.000
13.68000 1688.000
13.72000 1834.000
13.76000 2008.000
13.80000 2341.000
13.84000 2630.000
13.88000 3041.000
13.92000 3712.000
13.96000 4587.000
14.00000 5306.000
14.04000 6502.000
14.08000 8344.000
14.12000 10878.000
14.16000 15986.000
14.20000 23725.000
14.24000 38364.000
14.28000 57602.000
14.32000 67459.000
14.36000 54809.000
14.40000 32684.000
14.44000 18836.000
14.48000 11653.000
14.52000 7826.000
14.56000 5336.000
14.60000 4545.000
14.64000 4597.000
14.68000 5317.000
14.72000 6966.000
14.76000 9713.000
14.80000 13571.000
14.84000 16549.000
14.88000 15032.000
14.92000 10273.000
14.96000 6260.000
15.00000 3920.000
15.04000 2557.000
15.08000 1974.000
15.12000 1480.000
15.16000 1276.000
15.20000 1183.000
15.24000 1074.000
15.28000 959.000
15.32000 904.000
15.36000 880.000
15.40000 842.000
15.44000 838.000
15.48000 818.000
15.52000 804.000
15.56000 824.000
15.60000 761.000
15.64000 759.000
15.68000 710.000
15.72000 717.000
15.76000 712.000
15.80000 689.000
15.84000 780.000
15.88000 732.000
15.92000 717.000
15.96000 692.000
16.00000 669.000
16.04000 679.000
16.08000 709.000
16.12000 665.000
16.16000 688.000
16.20000 703.000
16.24000 674.000
16.28000 662.000
16.32000 651.000
16.36000 749.000
16.40000 734.000
16.44000 644.000
16.48000 652.000
16.52000 660.000
16.56000 708.000
16.60000 701.000
16.64000 631.000
16.68000 723.000
16.72000 632.000
16.76000 676.000
16.80000 689.000
16.84000 697.000
16.88000 691.000
16.92000 687.000
16.96000 698.000
17.00000 695.000
17.04000 679.000
17.08000 701.000
17.12000 686.000
17.16000 707.000
17.20000 727.000
17.24000 686.000
17.28000 705.000
17.32000 716.000
17.36000 665.000
17.40000 697.000
17.44000 594.000
17.48000 672.000
17.52000 667.000
17.56000 724.000
17.60000 698.000
17.64000 708.000
17.68000 667.000
17.72000 633.000
17.76000 678.000
17.80000 735.000
17.84000 706.000
17.88000 717.000
17.92000 668.000
17.96000 694.000
18.00000 686.000
18.04000 686.000
18.08000 669.000
18.12000 715.000
18.16000 674.000
18.20000 679.000
18.24000 757.000
18.28000 668.000
18.32000 656.000
18.36000 690.000
18.40000 722.000
18.44000 734.000
18.48000 760.000
18.52000 716.000
18.56000 742.000
18.60000 742.000
18.64000 740.000
18.68000 788.000
18.72000 750.000
18.76000 723.000
18.80000 733.000
18.84000 784.000
18.88000 726.000
18.92000 754.000
18.96000 768.000
19.00000 743.000
19.04000 761.000
19.08000 797.000
19.12000 802.000
19.16000 798.000
19.20000 844.000
19.24000 799.000
19.28000 839.000
19.32000 780.000
19.36000 885.000
19.40000 929.000
19.44000 945.000
19.48000 1055.000
19.52000 1225.000
19.56000 1397.000
19.60000 1844.000
19.64000 2525.000
19.68000 3574.000
19.72000 4615.000
19.76000 5109.000
19.80000 4430.000
19.84000 3329.000
19.88000 2428.000
19.92000 1822.000
19.96000 1412.000
20.00000 1219.000
20.04000 1066.000
20.08000 1001.000
20.12000 1010.000
20.16000 930.000
20.20000 915.000
20.24000 872.000
20.28000 913.000
20.32000 871.000
20.36000 864.000
20.40000 845.000
20.44000 860.000
20.48000 838.000
20.52000 895.000
20.56000 874.000
20.60000 876.000
20.64000 881.000
20.68000 884.000
20.72000 955.000
20.76000 877.000
20.80000 952.000
20.84000 906.000
20.88000 902.000
20.92000 868.000
20.96000 960.000
21.00000 981.000
21.04000 915.000
21.08000 912.000
21.12000 940.000
21.16000 940.000
21.20000 870.000
21.24000 922.000
21.28000 882.000
21.32000 941.000
21.36000 932.000
21.40000 907.000
21.44000 942.000
21.48000 929.000
21.52000 948.000
21.56000 952.000
21.60000 929.000
21.64000 944.000
21.68000 959.000
21.72000 938.000
21.76000 952.000
21.80000 938.000
21.84000 933.000
21.88000 930.000
21.92000 978.000
21.96000 971.000
22.00000 1013.000
22.04000 949.000
22.08000 975.000
22.12000 966.000
22.16000 1003.000
22.20000 968.000
22.24000 1001.000
22.28000 961.000
22.32000 917.000
22.36000 950.000
22.40000 1005.000
22.44000 957.000
22.48000 1012.000
22.52000 981.000
22.56000 998.000
22.60000 936.000
22.64000 1011.000
22.68000 973.000
22.72000 1005.000
22.76000 1015.000
22.80000 981.000
22.84000 1023.000
22.88000 1023.000
22.92000 1020.000
22.96000 991.000
23.00000 995.000
23.04000 981.000
23.08000 1032.000
23.12000 1081.000
23.16000 1000.000
23.20000 1055.000
23.24000 1056.000
23.28000 1007.000
23.32000 1064.000
23.36000 1035.000
23.40000 1004.000
23.44000 1030.000
23.48000 1002.000
23.52000 993.000
23.56000 1050.000
23.60000 1013.000
23.64000 1042.000
23.68000 992.000
23.72000 1026.000
23.76000 1023.000
23.80000 1022.000
23.84000 1070.000
23.88000 1035.000
23.92000 1092.000
23.96000 1073.000
24.00000 1063.000
24.04000 1073.000
24.08000 1076.000
24.12000 1025.000
24.16000 1090.000
24.20000 1066.000
24.24000 1066.000
24.28000 1078.000
24.32000 1035.000
24.36000 1136.000
24.40000 1075.000
24.44000 1089.000
24.48000 1126.000
24.52000 1134.000
24.56000 1118.000
24.60000 1214.000
24.64000 1241.000
24.68000 1181.000
24.72000 1189.000
24.76000 1232.000
24.80000 1207.000
24.84000 1179.000
24.88000 1180.000
24.92000 1173.000
24.96000 1166.000
25.00000 1159.000
25.04000 1202.000
25.08000 1230.000
25.12000 1306.000
25.16000 1432.000
25.20000 1607.000
25.24000 1783.000
25.28000 2060.000
25.32000 2308.000
25.36000 2471.000
25.40000 2499.000
25.44000 2400.000
25.48000 2411.000
25.52000 2502.000
25.56000 3057.000
25.60000 3848.000
25.64000 5487.000
25.68000 7806.000
25.72000 10709.000
25.76000 12435.000
25.80000 11522.000
25.84000 8972.000
25.88000 6226.000
25.92000 4229.000
25.96000 3023.000
26.00000 2231.000
26.04000 1779.000
26.08000 1649.000
26.12000 1423.000
26.16000 1289.000
26.20000 1202.000
26.24000 1206.000
26.28000 1229.000
26.32000 1266.000
26.36000 1183.000
26.40000 1286.000
26.44000 1148.000
26.48000 1114.000
26.52000 1118.000
26.56000 1094.000
26.60000 1138.000
26.64000 1063.000
26.68000 1161.000
26.72000 1172.000
26.76000 1113.000
26.80000 1136.000
26.84000 1078.000
26.88000 1119.000
26.92000 1148.000
26.96000 1159.000
27.00000 1119.000
27.04000 1087.000
27.08000 1085.000
27.12000 1097.000
27.16000 1079.000
27.20000 1154.000
27.24000 1126.000
27.28000 1139.000
27.32000 1115.000
27.36000 1203.000
27.40000 1213.000
27.44000 1309.000
27.48000 1250.000
27.52000 1299.000
27.56000 1231.000
27.60000 1302.000
27.64000 1297.000
27.68000 1357.000
27.72000 1428.000
27.76000 1488.000
27.80000 1531.000
27.84000 1573.000
27.88000 1653.000
27.92000 1830.000
27.96000 1858.000
28.00000 1939.000
28.04000 1965.000
28.08000 2044.000
28.12000 2061.000
28.16000 2129.000
28.20000 2136.000
28.24000 2187.000
28.28000 2211.000
28.32000 2405.000
28.36000 2652.000
28.40000 3051.000
28.44000 3828.000
28.48000 5047.000
28.52000 7230.000
28.56000 11197.000
28.60000 18236.000
28.64000 29692.000
28.68000 46232.000
28.72000 56772.000
28.76000 52773.000
28.80000 38848.000
28.84000 24287.000
28.88000 14065.000
28.92000 8321.000
28.96000 5231.000
29.00000 3732.000
29.04000 2714.000
29.08000 2304.000
29.12000 2139.000
29.16000 1976.000
29.20000 1815.000
29.24000 1810.000
29.28000 1789.000
29.32000 1840.000
29.36000 1837.000
29.40000 1912.000
29.44000 2026.000
29.48000 2315.000
29.52000 2596.000
29.56000 3178.000
29.60000 4200.000
29.64000 5708.000
29.68000 8045.000
29.72000 11057.000
29.76000 14373.000
29.80000 16736.000
29.84000 16197.000
29.88000 13495.000
29.92000 10080.000
29.96000 6801.000
30.00000 4556.000
30.04000 3231.000
30.08000 2558.000
30.12000 2058.000
30.16000 1818.000
30.20000 1571.000
30.24000 1482.000
30.28000 1405.000
30.32000 1443.000
30.36000 1307.000
30.40000 1301.000
30.44000 1211.000
30.48000 1237.000
30.52000 1160.000
30.56000 1159.000
30.60000 1104.000
30.64000 1176.000
30.68000 1107.000
30.72000 1059.000
30.76000 1152.000
30.80000 1037.000
30.84000 1053.000
30.88000 992.000
30.92000 990.000
30.96000 955.000
31.00000 1044.000
31.04000 955.000
31.08000 916.000
31.12000 856.000
31.16000 971.000
31.20000 884.000
31.24000 936.000
31.28000 868.000
31.32000 884.000
31.36000 882.000
31.40000 905.000
31.44000 939.000
31.48000 905.000
31.52000 903.000
31.56000 927.000
31.60000 888.000
31.64000 881.000
31.68000 893.000
31.72000 861.000
31.76000 826.000
31.80000 878.000
31.84000 860.000
31.88000 858.000
31.92000 839.000
31.96000 835.000
32.00000 814.000
32.04000 865.000
32.08000 832.000
32.12000 821.000
32.16000 885.000
32.20000 820.000
32.24000 828.000
32.28000 808.000
32.32000 842.000
32.36000 803.000
32.40000 767.000
32.44000 768.000
32.48000 786.000
32.52000 776.000
32.56000 745.000
32.60000 794.000
32.64000 743.000
32.68000 796.000
32.72000 753.000
32.76000 781.000
32.80000 731.000
32.84000 751.000
32.88000 743.000
32.92000 736.000
32.96000 746.000
33.00000 735.000
33.04000 751.000
33.08000 701.000
33.12000 746.000
33.16000 765.000
33.20000 737.000
33.24000 762.000
33.28000 800.000
33.32000 796.000
33.36000 764.000
33.40000 809.000
33.44000 813.000
33.48000 714.000
33.52000 765.000
33.56000 757.000
33.60000 753.000
33.64000 727.000
33.68000 701.000
33.72000 700.000
33.76000 701.000
33.80000 668.000
33.84000 719.000
33.88000 680.000
33.92000 606.000
33.96000 676.000
34.00000 714.000
34.04000 681.000
34.08000 670.000
34.12000 645.000
34.16000 698.000
34.20000 672.000
34.24000 650.000
34.28000 692.000
34.32000 649.000
34.36000 660.000
34.40000 619.000
34.44000 642.000
34.48000 621.000
34.52000 652.000
34.56000 633.000
34.60000 627.000
34.64000 622.000
34.68000 634.000
34.72000 627.000
34.76000 634.000
34.80000 621.000
34.84000 612.000
34.88000 603.000
34.92000 612.000
34.96000 632.000
35.00000 673.000
35.04000 629.000
35.08000 646.000
35.12000 661.000
35.16000 583.000
35.20000 616.000
35.24000 616.000
35.28000 569.000
35.32000 560.000
35.36000 613.000
35.40000 620.000
35.44000 573.000
35.48000 595.000
35.52000 577.000
35.56000 538.000
35.60000 586.000
35.64000 559.000
35.68000 576.000
35.72000 582.000
35.76000 577.000
35.80000 579.000
35.84000 592.000
35.88000 561.000
35.92000 530.000
35.96000 536.000
36.00000 556.000
36.04000 592.000
36.08000 524.000
36.12000 542.000
36.16000 551.000
36.20000 514.000
36.24000 565.000
36.28000 531.000
36.32000 516.000
36.36000 548.000
36.40000 537.000
36.44000 520.000
36.48000 494.000
36.52000 510.000
36.56000 557.000
36.60000 537.000
36.64000 491.000
36.68000 543.000
36.72000 540.000
36.76000 513.000
36.80000 517.000
36.84000 485.000
36.88000 515.000
36.92000 534.000
36.96000 523.000
37.00000 511.000
37.04000 501.000
37.08000 534.000
37.12000 477.000
37.16000 500.000
37.20000 518.000
37.24000 499.000
37.28000 470.000
37.32000 491.000
37.36000 470.000
37.40000 504.000
37.44000 500.000
37.48000 486.000
37.52000 502.000
37.56000 484.000
37.60000 518.000
37.64000 520.000
37.68000 503.000
37.72000 499.000
37.76000 500.000
37.80000 503.000
37.84000 477.000
37.88000 504.000
37.92000 477.000
37.96000 480.000
38.00000 491.000
38.04000 471.000
38.08000 504.000
38.12000 455.000
38.16000 470.000
38.20000 443.000
38.24000 510.000
38.28000 501.000
38.32000 483.000
38.36000 462.000
38.40000 508.000
38.44000 456.000
38.48000 491.000
38.52000 447.000
38.56000 445.000
38.60000 486.000
38.64000 482.000
38.68000 506.000
38.72000 491.000
38.76000 463.000
38.80000 505.000
38.84000 526.000
38.88000 573.000
38.92000 556.000
38.96000 561.000
39.00000 617.000
39.04000 596.000
39.08000 525.000
39.12000 510.000
39.16000 517.000
39.20000 487.000
39.24000 463.000
39.28000 485.000
39.32000 470.000
39.36000 455.000
39.40000 446.000
39.44000 487.000
39.48000 445.000
39.52000 452.000
39.56000 472.000
39.60000 431.000
39.64000 480.000
39.68000 464.000
39.72000 443.000
39.76000 468.000
39.80000 449.000
39.84000 436.000
39.88000 458.000
39.92000 463.000
39.96000 445.000
40.00000 410.000
40.04000 467.000
40.08000 452.000
40.12000 419.000
40.16000 423.000
40.20000 419.000
40.24000 442.000
40.28000 413.000
40.32000 410.000
40.36000 474.000
40.40000 499.000
40.44000 432.000
40.48000 441.000
40.52000 430.000
40.56000 478.000
40.60000 417.000
40.64000 451.000
40.68000 463.000
40.72000 467.000
40.76000 426.000
40.80000 448.000
40.84000 454.000
40.88000 460.000
40.92000 446.000
40.96000 490.000
41.00000 447.000
41.04000 444.000
41.08000 438.000
41.12000 478.000
41.16000 503.000
41.20000 454.000
41.24000 437.000
41.28000 438.000
41.32000 452.000
41.36000 436.000
41.40000 444.000
41.44000 442.000
41.48000 433.000
41.52000 464.000
41.56000 446.000
41.60000 433.000
41.64000 479.000
41.68000 427.000
41.72000 432.000
41.76000 437.000
41.80000 455.000
41.84000 465.000
41.88000 503.000
41.92000 416.000
41.96000 477.000
42.00000 462.000
42.04000 442.000
42.08000 474.000
42.12000 463.000
42.16000 465.000
42.20000 424.000
42.24000 448.000
42.28000 497.000
42.32000 501.000
42.36000 521.000
42.40000 453.000
42.44000 463.000
42.48000 492.000
42.52000 503.000
42.56000 545.000
42.60000 550.000
42.64000 567.000
42.68000 513.000
42.72000 560.000
42.76000 506.000
42.80000 496.000
42.84000 489.000
42.88000 452.000
42.92000 500.000
42.96000 483.000
43.00000 471.000
43.04000 439.000
43.08000 503.000
43.12000 474.000
43.16000 446.000
43.20000 527.000
43.24000 470.000
43.28000 528.000
43.32000 491.000
43.36000 533.000
43.40000 593.000
43.44000 684.000
43.48000 736.000
43.52000 918.000
43.56000 1114.000
43.60000 1351.000
43.64000 1396.000
43.68000 1191.000
43.72000 1165.000
43.76000 902.000
43.80000 807.000
43.84000 650.000
43.88000 556.000
43.92000 498.000
43.96000 509.000
44.00000 489.000
44.04000 492.000
44.08000 508.000
44.12000 482.000
44.16000 455.000
44.20000 470.000
44.24000 459.000
44.28000 487.000
44.32000 457.000
44.36000 445.000
44.40000 470.000
44.44000 452.000
44.48000 474.000
44.52000 467.000
44.56000 455.000
44.60000 493.000
44.64000 514.000
44.68000 485.000
44.72000 473.000
44.76000 430.000
44.80000 465.000
44.84000 463.000
44.88000 472.000
44.92000 440.000
44.96000 500.000
45.00000 461.000
45.04000 488.000
45.08000 500.000
45.12000 504.000
45.16000 568.000
45.20000 595.000
45.24000 634.000
45.28000 807.000
45.32000 786.000
45.36000 737.000
45.40000 711.000
45.44000 705.000
45.48000 645.000
45.52000 556.000
45.56000 540.000
45.60000 499.000
45.64000 460.000
45.68000 444.000
45.72000 456.000
45.76000 451.000
45.80000 421.000
45.84000 435.000
45.88000 449.000
45.92000 421.000
45.96000 412.000
46.00000 440.000
46.04000 412.000
46.08000 402.000
46.12000 444.000
46.16000 436.000
46.20000 407.000
46.24000 433.000
46.28000 444.000
46.32000 421.000
46.36000 458.000
46.40000 393.000
46.44000 411.000
46.48000 395.000
46.52000 428.000
46.56000 424.000
46.60000 414.000
46.64000 416.000
46.68000 411.000
46.72000 417.000
46.76000 429.000
46.80000 414.000
46.84000 424.000
46.88000 389.000
46.92000 418.000
46.96000 425.000
47.00000 399.000
47.04000 414.000
47.08000 418.000
47.12000 454.000
47.16000 405.000
47.20000 403.000
47.24000 382.000
47.28000 404.000
47.32000 440.000
47.36000 390.000
47.40000 380.000
47.44000 383.000
47.48000 401.000
47.52000 370.000
47.56000 404.000
47.60000 405.000
47.64000 405.000
47.68000 387.000
47.72000 387.000
47.76000 422.000
47.80000 397.000
47.84000 388.000
47.88000 430.000
47.92000 392.000
47.96000 411.000
48.00000 392.000
48.04000 405.000
48.08000 389.000
48.12000 417.000
48.16000 397.000
48.20000 382.000
48.24000 369.000
48.28000 388.000
48.32000 394.000
48.36000 419.000
48.40000 411.000
48.44000 420.000
48.48000 396.000
48.52000 395.000
48.56000 401.000
48.60000 395.000
48.64000 380.000
48.68000 410.000
48.72000 376.000
48.76000 366.000
48.80000 386.000
48.84000 411.000
48.88000 380.000
48.92000 380.000
48.96000 426.000
49.00000 396.000
49.04000 401.000
49.08000 407.000
49.12000 407.000
49.16000 406.000
49.20000 367.000
49.24000 389.000
49.28000 362.000
49.32000 403.000
49.36000 413.000
49.40000 379.000
49.44000 356.000
49.48000 379.000
49.52000 371.000
49.56000 384.000
49.60000 344.000
49.64000 370.000
49.68000 363.000
49.72000 392.000
49.76000 385.000
49.80000 425.000
49.84000 385.000
49.88000 396.000
49.92000 398.000
49.96000 423.000
50.00000 405.000
50.04000 369.000
50.08000 344.000
50.12000 405.000
50.16000 386.000
50.20000 422.000
50.24000 395.000
50.28000 427.000
50.32000 442.000
50.36000 459.000
50.40000 537.000
50.44000 487.000
50.48000 525.000
50.52000 566.000
50.56000 608.000
50.60000 566.000
50.64000 530.000
50.68000 550.000
50.72000 501.000
50.76000 499.000
50.80000 421.000
50.84000 461.000
50.88000 416.000
50.92000 428.000
50.96000 420.000
51.00000 380.000
51.04000 381.000
51.08000 434.000
51.12000 394.000
51.16000 371.000
51.20000 363.000
51.24000 395.000
51.28000 401.000
51.32000 370.000
51.36000 402.000
51.40000 388.000
51.44000 389.000
51.48000 378.000
51.52000 360.000
51.56000 412.000
51.60000 390.000
51.64000 413.000
51.68000 397.000
51.72000 431.000
51.76000 431.000
51.80000 373.000
51.84000 429.000
51.88000 428.000
51.92000 419.000
51.96000 430.000
52.00000 473.000
52.04000 392.000
52.08000 410.000
52.12000 399.000
52.16000 403.000
52.20000 412.000
52.24000 408.000
52.28000 460.000
52.32000 428.000
52.36000 446.000
52.40000 413.000
52.44000 447.000
52.48000 414.000
52.52000 460.000
52.56000 490.000
52.60000 541.000
52.64000 567.000
52.68000 675.000
52.72000 801.000
52.76000 881.000
52.80000 971.000
52.84000 979.000
52.88000 908.000
52.92000 878.000
52.96000 818.000
53.00000 657.000
53.04000 617.000
53.08000 557.000
53.12000 477.000
53.16000 474.000
53.20000 475.000
53.24000 435.000
53.28000 422.000
53.32000 434.000
53.36000 434.000
53.40000 432.000
53.44000 438.000
53.48000 371.000
53.52000 389.000
53.56000 381.000
53.60000 365.000
53.64000 399.000
53.68000 389.000
53.72000 388.000
53.76000 406.000
53.80000 401.000
53.84000 407.000
53.88000 407.000
53.92000 408.000
53.96000 363.000
54.00000 406.000
54.04000 385.000
54.08000 361.000
54.12000 393.000
54.16000 388.000
54.20000 376.000
54.24000 397.000
54.28000 377.000
54.32000 385.000
54.36000 411.000
54.40000 413.000
54.44000 376.000
54.48000 398.000
54.52000 416.000
54.56000 394.000
54.60000 410.000
54.64000 383.000
54.68000 377.000
54.72000 408.000
54.76000 383.000
54.80000 381.000
54.84000 352.000
54.88000 363.000
54.92000 385.000
54.96000 385.000
55.00000 373.000
55.04000 356.000
55.08000 399.000
55.12000 368.000
55.16000 386.000
55.20000 363.000
55.24000 355.000
55.28000 406.000
55.32000 375.000
55.36000 388.000
55.40000 383.000
55.44000 379.000
55.48000 402.000
55.52000 379.000
55.56000 392.000
55.60000 339.000
55.64000 363.000
55.68000 387.000
55.72000 385.000
55.76000 366.000
55.80000 359.000
55.84000 366.000
55.88000 446.000
55.92000 366.000
55.96000 379.000
56.00000 390.000
56.04000 396.000
56.08000 380.000
56.12000 376.000
56.16000 370.000
56.20000 393.000
56.24000 406.000
56.28000 370.000
56.32000 360.000
56.36000 406.000
56.40000 411.000
56.44000 356.000
56.48000 378.000
56.52000 357.000
56.56000 389.000
56.60000 357.000
56.64000 415.000
56.68000 345.000
56.72000 374.000
56.76000 394.000
56.80000 375.000
56.84000 382.000
56.88000 395.000
56.92000 405.000
56.96000 385.000
57.00000 360.000
57.04000 389.000
57.08000 366.000
57.12000 392.000
57.16000 393.000
57.20000 367.000
57.24000 368.000
57.28000 399.000
57.32000 382.000
57.36000 378.000
57.40000 373.000
57.44000 387.000
57.48000 383.000
57.52000 394.000
57.56000 408.000
57.60000 381.000
57.64000 396.000
57.68000 393.000
57.72000 375.000
57.76000 381.000
57.80000 376.000
57.84000 412.000
57.88000 395.000
57.92000 401.000
57.96000 400.000
58.00000 406.000
58.04000 386.000
58.08000 413.000
58.12000 410.000
58.16000 384.000
58.20000 366.000
58.24000 412.000
58.28000 397.000
58.32000 428.000
58.36000 402.000
58.40000 395.000
58.44000 425.000
58.48000 396.000
58.52000 383.000
58.56000 372.000
58.60000 401.000
58.64000 388.000
58.68000 392.000
58.72000 383.000
58.76000 384.000
58.80000 441.000
58.84000 413.000
58.88000 449.000
58.92000 445.000
58.96000 441.000
59.00000 470.000
59.04000 478.000
59.08000 525.000
59.12000 518.000
59.16000 660.000
59.20000 813.000
59.24000 1041.000
59.28000 1416.000
59.32000 1755.000
59.36000 1738.000
59.40000 1413.000
59.44000 1329.000
59.48000 1254.000
59.52000 1162.000
59.56000 854.000
59.60000 759.000
59.64000 628.000
59.68000 533.000
59.72000 479.000
59.76000 457.000
59.80000 447.000
59.84000 488.000
59.88000 464.000
59.92000 461.000
59.96000 412.000
60.00000 434.000
60.04000 431.000
60.08000 412.000
60.12000 443.000
60.16000 425.000
60.20000 417.000
60.24000 414.000
60.28000 436.000
60.32000 374.000
60.36000 400.000
60.40000 383.000
60.44000 426.000
60.48000 390.000
60.52000 376.000
60.56000 391.000
60.60000 404.000
60.64000 412.000
60.68000 412.000
60.72000 373.000
60.76000 387.000
60.80000 403.000
60.84000 401.000
60.88000 388.000
60.92000 377.000
60.96000 410.000
61.00000 436.000
61.04000 387.000
61.08000 412.000
61.12000 400.000
61.16000 409.000
61.20000 404.000
61.24000 382.000
61.28000 417.000
61.32000 425.000
61.36000 423.000
61.40000 455.000
61.44000 427.000
61.48000 464.000
61.52000 511.000
61.56000 489.000
61.60000 517.000
61.64000 539.000
61.68000 572.000
61.72000 575.000
61.76000 670.000
61.80000 624.000
61.84000 590.000
61.88000 606.000
61.92000 592.000
61.96000 507.000
62.00000 496.000
62.04000 498.000
62.08000 468.000
62.12000 467.000
62.16000 406.000
62.20000 436.000
62.24000 431.000
62.28000 396.000
62.32000 378.000
62.36000 388.000
62.40000 396.000
62.44000 418.000
62.48000 362.000
62.52000 381.000
62.56000 387.000
62.60000 419.000
62.64000 364.000
62.68000 407.000
62.72000 346.000
62.76000 383.000
62.80000 389.000
62.84000 379.000
62.88000 384.000
62.92000 412.000
62.96000 383.000
63.00000 352.000
63.04000 373.000
63.08000 371.000
63.12000 403.000
63.16000 395.000
63.20000 348.000
63.24000 394.000
63.28000 389.000
63.32000 350.000
63.36000 355.000
63.40000 383.000
63.44000 360.000
63.48000 385.000
63.52000 349.000
63.56000 370.000
63.60000 382.000
63.64000 383.000
63.68000 404.000
63.72000 339.000
63.76000 393.000
63.80000 359.000
63.84000 418.000
63.88000 376.000
63.92000 341.000
63.96000 354.000
64.00000 384.000
64.04000 398.000
64.08000 362.000
64.12000 377.000
64.16000 350.000
64.20000 393.000
64.24000 351.000
64.28000 349.000
64.32000 354.000
64.36000 352.000
64.40000 369.000
64.44000 356.000
64.48000 376.000
64.52000 364.000
64.56000 357.000
64.60000 352.000
64.64000 359.000
64.68000 338.000
64.72000 333.000
64.76000 337.000
64.80000 412.000
64.84000 341.000
64.88000 372.000
64.92000 332.000
64.96000 357.000
65.00000 353.000
65.04000 379.000
65.08000 322.000
65.12000 352.000
65.16000 347.000
65.20000 352.000
65.24000 349.000
65.28000 369.000
65.32000 385.000
65.36000 340.000
65.40000 358.000
65.44000 352.000
65.48000 309.000
65.52000 355.000
65.56000 351.000
65.60000 317.000
65.64000 346.000
65.68000 357.000
65.72000 363.000
65.76000 369.000
65.80000 363.000
65.84000 328.000
65.88000 308.000
65.92000 358.000
65.96000 327.000
66.00000 339.000
66.04000 369.000
66.08000 379.000
66.12000 327.000
66.16000 327.000
66.20000 354.000
66.24000 348.000
66.28000 378.000
66.32000 325.000
66.36000 359.000
66.40000 315.000
66.44000 344.000
66.48000 356.000
66.52000 328.000
66.56000 354.000
66.60000 335.000
66.64000 364.000
66.68000 338.000
66.72000 320.000
66.76000 334.000
66.80000 377.000
66.84000 316.000
66.88000 325.000
66.92000 361.000
66.96000 361.000
67.00000 313.000
67.04000 313.000
67.08000 335.000
67.12000 337.000
67.16000 363.000
67.20000 343.000
67.24000 333.000
67.28000 342.000
67.32000 404.000
67.36000 382.000
67.40000 402.000
67.44000 360.000
67.48000 374.000
67.52000 337.000
67.56000 318.000
67.60000 359.000
67.64000 357.000
67.68000 359.000
67.72000 353.000
67.76000 346.000
67.80000 321.000
67.84000 331.000
67.88000 340.000
67.92000 333.000
67.96000 347.000
68.00000 319.000
68.04000 305.000
68.08000 345.000
68.12000 351.000
68.16000 361.000
68.20000 339.000
68.24000 315.000
68.28000 332.000
68.32000 312.000
68.36000 316.000
68.40000 337.000
68.44000 354.000
68.48000 315.000
68.52000 321.000
68.56000 350.000
68.60000 325.000
68.64000 330.000
68.68000 279.000
68.72000 359.000
68.76000 337.000
68.80000 331.000
68.84000 301.000
68.88000 323.000
68.92000 324.000
68.96000 343.000
69.00000 333.000
69.04000 355.000
69.08000 322.000
69.12000 315.000
69.16000 313.000
69.20000 328.000
69.24000 308.000
69.28000 276.000
69.32000 305.000
69.36000 327.000
69.40000 312.000
69.44000 306.000
69.48000 305.000
69.52000 323.000
69.56000 314.000
69.60000 296.000
69.64000 334.000
69.68000 295.000
69.72000 349.000
69.76000 304.000
69.80000 287.000
69.84000 328.000
69.88000 334.000
69.92000 294.000
