10 56	
10.0496 48	
10.0992 49	
10.1489 56	
10.1985 42	
10.2481 45	
10.2977 48	
10.3473 39	
 10.397 47	
10.4466 42	
10.4962 41	
10.5458 45	
10.5954 45	
10.6451 48	
10.6947 43	
10.7443 39	
10.7939 32	
10.8435 42	
10.8932 34	
10.9428 44	
10.9924 35	
 11.042 40	
11.0916 24	
11.1413 43	
11.1909 40	
11.2405 22	
11.2901 35	
11.3397 40	
11.3894 32	
 11.439 35	
11.4886 37	
11.5382 35	
11.5878 43	
11.6375 38	
11.6871 37	
11.7367 43	
11.7863 35	
11.8359 38	
11.8856 37	
11.9352 39	
11.9848 45	
12.0344 41	
 12.084 33	
12.1337 25	
12.1833 41	
12.2329 32	
12.2825 33	
12.3321 30	
12.3818 30	
12.4314 28	
 12.481 48	
12.5306 40	
12.5802 34	
12.6299 47	
12.6795 51	
12.7291 48	
12.7787 41	
12.8283 27	
 12.878 35	
12.9276 32	
12.9772 27	
13.0268 27	
13.0764 33	
13.1261 30	
13.1757 25	
13.2253 25	
13.2749 27	
13.3245 22	
13.3742 19	
13.4238 32	
13.4734 17	
 13.523 23	
13.5726 26	
13.6223 28	
13.6719 20	
13.7215 25	
13.7711 18	
13.8207 26	
13.8704 22	
  13.92 18	
13.9696 22	
14.0192 18	
14.0688 24	
14.1185 15	
14.1681 24	
14.2177 15	
14.2673 19	
14.3169 18	
14.3666 19	
14.4162 17	
14.4658 21	
14.5154 13	
 14.565 17	
14.6147 17	
14.6643 16	
14.7139 20	
14.7635 15	
14.8131 15	
14.8628 14	
14.9124 10	
 14.962 16	
15.0116 15	
15.0613 14	
15.1109 13	
15.1605 15	
15.2101 15	
15.2597  5	
15.3094 19	
 15.359 19	
15.4086  8	
15.4582 19	
15.5078 11	
15.5575 10	
15.6071 13	
15.6567 12	
15.7063 12	
15.7559 13	
15.8056 11	
15.8552  5	
15.9048 13	
15.9544 12	
 16.004 14	
16.0537 16	
16.1033 10	
16.1529 11	
16.2025 12	
16.2521 11	
16.3018 18	
16.3514 11	
 16.401 18	
16.4506 10	
16.5002 12	
16.5499  9	
16.5995 12	
16.6491 12	
16.6987  8	
16.7483 18	
 16.798 12	
16.8476  5	
16.8972 15	
16.9468 14	
16.9964  9	
17.0461 14	
17.0957 14	
17.1453 11	
17.1949 14	
17.2445 14	
17.2942 10	
17.3438  8	
17.3934  9	
 17.443 16	
17.4926  6	
17.5423  4	
17.5919 11	
17.6415  9	
17.6911 12	
17.7407  8	
17.7904 16	
  17.84  8	
17.8896  7	
17.9392 15	
17.9888 10	
18.0385  8	
18.0881 12	
18.1377 12	
18.1873 12	
18.2369  1	
18.2866  8	
18.3362  9	
18.3858  8	
18.4354 15	
 18.485  6	
18.5347 17	
18.5843 11	
18.6339 12	
18.6835 12	
18.7331 16	
18.7828 13	
18.8324  9	
 18.882  9	
18.9316 12	
18.9812 13	
19.0309 11	
19.0805 12	
19.1301 14	
19.1797 13	
19.2293 11	
 19.279 14	
19.3286  7	
19.3782 11	
19.4278  6	
19.4774  6	
19.5271  8	
19.5767  9	
19.6263 10	
19.6759  7	
19.7255 12	
19.7752 15	
19.8248  7	
19.8744 11	
 19.924  6	
19.9736 11	
20.0233  7	
20.0729  9	
20.1225 10	
20.1721 10	
20.2217 10	
20.2714 13	
 20.321 10	
20.3706 15	
20.4202 11	
20.4698  9	
20.5195 14	
20.5691 11	
20.6187 15	
20.6683 12	
20.7179  6	
20.7676  9	
20.8172  4	
20.8668 13	
20.9164  7	
 20.966  7	
21.0157  9	
21.0653  7	
21.1149 12	
21.1645 10	
21.2141  9	
21.2638 13	
21.3134  5	
 21.363 10	
21.4126 11	
21.4622 12	
21.5119 10	
21.5615 13	
21.6111  8	
21.6607 11	
21.7103  6	
  21.76 10	
21.8096 18	
21.8592 10	
21.9088  8	
21.9584  8	
22.0081  8	
22.0577  7	
22.1073 10	
22.1569  9	
22.2065  9	
22.2562  7	
22.3058  6	
22.3554  8	
 22.405  9	
22.4546  8	
22.5043 10	
22.5539  6	
22.6035  9	
22.6531 13	
22.7027  2	
22.7524  9	
 22.802  8	
22.8516  9	
22.9012  8	
22.9508  6	
23.0005  8	
23.0501 12	
23.0997  5	
23.1493 15	
23.1989 14	
23.2486  7	
23.2982 12	
23.3478 13	
23.3974  5	
 23.447 10	
23.4967 15	
23.5463 14	
23.5959 18	
23.6455 11	
23.6951  6	
23.7448 12	
23.7944  5	
 23.844  7	
23.8936 10	
23.9432 14	
23.9929 10	
24.0425 12	
24.0921 10	
24.1417 10	
24.1913 10	
 24.241  9	
24.2906 11	
24.3402 12	
24.3898 16	
24.4394 15	
24.4891 15	
24.5387 12	
24.5883 12	
24.6379 13	
24.6875 11	
24.7372  9	
24.7868 17	
24.8364  4	
 24.886  7	
24.9357 14	
24.9853  9	
25.0349 12	
25.0845  8	
25.1341  8	
25.1838 18	
25.2334 11	
 25.283 19	
25.3326 10	
25.3822 11	
25.4319 15	
25.4815 11	
25.5311 13	
25.5807 12	
25.6303 15	
  25.68  9	
25.7296 10	
25.7792 12	
25.8288  6	
25.8784 11	
25.9281  5	
25.9777 13	
26.0273 12	
26.0769 19	
26.1265 12	
26.1762 13	
26.2258 12	
26.2754 16	
 26.325 17	
26.3746 20	
26.4243 48	
26.4739 92	
26.5235 96	
26.5731 69	
26.6227 45	
26.6724 24	
 26.722 17	
26.7716 16	
26.8212 16	
26.8708 10	
26.9205 11	
26.9701  7	
27.0197 12	
27.0693  5	
27.1189 11	
27.1686  9	
27.2182  7	
27.2678 12	
27.3174  9	
 27.367  6	
27.4167 13	
27.4663 11	
27.5159  6	
27.5655 12	
27.6151  5	
27.6648 11	
27.7144  9	
 27.764  8	
27.8136 14	
27.8632 15	
27.9129  8	
27.9625  8	
28.0121 13	
28.0617  8	
28.1113 12	
 28.161 10	
28.2106 16	
28.2602  8	
28.3098 14	
28.3594 15	
28.4091 18	
28.4587 12	
28.5083 21	
28.5579 10	
28.6075  8	
28.6572  9	
28.7068 13	
28.7564 10	
 28.806 11	
28.8556 10	
28.9053 11	
28.9549  4	
29.0045  5	
29.0541  9	
29.1037  9	
29.1534 13	
 29.203 13	
29.2526  4	
29.3022  6	
29.3518  9	
29.4015  6	
29.4511  8	
29.5007  7	
29.5503 10	
29.5999  7	
29.6496  9	
29.6992 16	
29.7488  3	
29.7984  8	
 29.848  4	
29.8977 11	
29.9473  5	
29.9969  7	
30.0465 11	
30.0961 10	
30.1458 12	
30.1954  6	
 30.245  8	
30.2946  5	
30.3442  5	
30.3939 11	
30.4435  5	
30.4931  4	
30.5427  7	
30.5923  5	
 30.642 11	
30.6916  4	
30.7412  6	
30.7908 11	
30.8404  9	
30.8901  8	
30.9397  8	
30.9893  9	
31.0389  7	
31.0885  6	
31.1382  6	
31.1878 11	
31.2374  5	
 31.287  7	
31.3366 11	
31.3863  6	
31.4359  6	
31.4855  7	
31.5351  9	
31.5847  5	
31.6344  9	
 31.684 12	
31.7336  6	
31.7832  5	
31.8328  8	
31.8825  6	
31.9321  7	
31.9817  6	
32.0313  7	
32.0809 12	
32.1306 10	
32.1802  4	
32.2298 10	
32.2794  6	
 32.329  7	
32.3787 10	
32.4283  7	
32.4779 10	
32.5275  8	
32.5771  4	
32.6268  4	
32.6764  8	
 32.726  6	
32.7756  6	
32.8252 14	
32.8749 10	
32.9245  4	
32.9741  6	
33.0237  3	
33.0733  6	
 33.123  2	
33.1726 10	
33.2222  8	
33.2718  8	
33.3214  5	
33.3711  8	
33.4207 10	
33.4703  5	
33.5199  6	
33.5695 12	
33.6192 18	
33.6688 38	
33.7184 34	
 33.768 31	
33.8176 20	
33.8673 24	
33.9169 10	
33.9665 16	
34.0161  5	
34.0657  8	
34.1154  5	
 34.165 10	
34.2146 10	
34.2642  5	
34.3138  8	
34.3635  6	
34.4131  3	
34.4627  9	
34.5123  6	
34.5619  5	
34.6116  9	
34.6612  6	
34.7108  5	
34.7604  4	
  34.81  6	
34.8597  7	
34.9093  5	
34.9589  3	
35.0085  6	
35.0582  8	
35.1078 10	
35.1574  5	
 35.207  9	
35.2566  8	
35.3063  6	
35.3559  6	
35.4055  9	
35.4551  4	
35.5047  5	
35.5544  6	
 35.604  7	
35.6536  4	
35.7032  5	
35.7528  9	
35.8025  4	
35.8521  9	
35.9017  3	
35.9513  4	
36.0009  1	
36.0506  7	
36.1002  6	
36.1498  2	
36.1994  6	
 36.249  5	
36.2987  5	
36.3483  1	
36.3979  6	
36.4475  4	
36.4971  4	
36.5468  4	
36.5964  3	
 36.646  5	
36.6956  6	
36.7452  7	
36.7949  4	
36.8445  9	
36.8941  4	
36.9437  6	
36.9933  6	
 37.043  5	
37.0926  5	
37.1422  6	
37.1918  7	
37.2414  6	
37.2911  6	
37.3407  6	
37.3903  5	
37.4399  6	
37.4895 13	
37.5392 13	
37.5888 14	
37.6384 26	
 37.688 43	
37.7376 65	
37.7873 67	
37.8369 40	
37.8865 28	
37.9361 22	
37.9857 19	
38.0354 17	
 38.085  6	
38.1346  7	
38.1842 10	
38.2338 10	
38.2835  6	
38.3331  6	
38.3827  8	
38.4323  6	
38.4819  6	
38.5316  7	
38.5812  6	
38.6308 11	
38.6804  4	
  38.73  8	
38.7797  5	
38.8293  7	
38.8789  1	
38.9285  5	
38.9781  7	
39.0278  4	
39.0774  5	
 39.127  6	
39.1766  8	
39.2262  7	
39.2759  4	
39.3255  4	
39.3751  8	
39.4247  8	
39.4743  6	
 39.524  4	
39.5736  3	
39.6232  3	
39.6728  3	
39.7224  4	
39.7721  3	
39.8217  7	
39.8713  4	
39.9209  6	
39.9705  5	
40.0202  5	
40.0698  1	
40.1194  8	
 40.169  7	
40.2186  8	
40.2683  7	
40.3179  4	
40.3675  6	
40.4171  4	
40.4667  5	
40.5164 12	
 40.566  2	
40.6156  5	
40.6652  8	
40.7148  5	
40.7645  7	
40.8141  2	
40.8637  4	
40.9133  5	
40.9629  2	
41.0126  3	
41.0622  7	
41.1118  9	
41.1614  8	
 41.211  5	
41.2607  5	
41.3103  5	
41.3599  5	
41.4095  6	
41.4591  6	
41.5088  4	
41.5584  7	
 41.608  4	
41.6576  8	
41.7072  3	
41.7569  6	
41.8065  6	
41.8561  4	
41.9057  6	
41.9553  4	
 42.005  8	
42.0546  4	
42.1042  6	
42.1538  1	
42.2034  6	
42.2531  4	
42.3027  4	
42.3523  7	
42.4019  4	
42.4515  5	
42.5012  8	
42.5508  5	
42.6004  5	
  42.65  9	
42.6996  1	
42.7493  4	
42.7989  6	
42.8485  4	
42.8981  7	
42.9477  5	
42.9974  6	
 43.047  3	
43.0966  9	
43.1462  9	
43.1958  9	
43.2455 13	
43.2951  4	
43.3447  8	
43.3943  6	
43.4439  6	
43.4936  6	
43.5432  7	
43.5928  8	
43.6424  6	
 43.692  1	
43.7417  2	
43.7913  6	
43.8409  4	
43.8905  4	
43.9401  4	
43.9898  6	
44.0394  3	
 44.089  6	
44.1386  6	
44.1882  7	
44.2379  5	
44.2875  5	
44.3371  1	
44.3867  1	
44.4363  7	
 44.486  4	
44.5356  6	
44.5852  4	
44.6348  3	
44.6844  2	
44.7341  6	
44.7837  5	
44.8333  3	
44.8829  8	
44.9326  4	
44.9822  8	
45.0318  4	
45.0814  3	
 45.131  7	
45.1807 14	
45.2303  7	
45.2799  1	
45.3295  6	
45.3791  3	
45.4288  8	
45.4784  4	
 45.528  7	
45.5776  3	
45.6272  3	
45.6769  7	
45.7265  4	
45.7761  5	
45.8257  4	
45.8753  2	
 45.925  3	
45.9746  9	
46.0242  3	
46.0738  3	
46.1234  4	
46.1731  5	
46.2227  7	
46.2723  5	
46.3219  5	
46.3715  6	
46.4212  3	
46.4708  3	
46.5204  4	
  46.57  3	
46.6196  1	
46.6693  6	
46.7189  4	
46.7685  6	
46.8181  5	
46.8677  8	
46.9174  2	
 46.967  7	
47.0166  4	
47.0662  0	
47.1158  3	
47.1655  2	
47.2151  4	
47.2647  3	
47.3143  3	
47.3639  2	
47.4136  6	
47.4632  7	
47.5128  4	
47.5624  4	
 47.612  7	
47.6617  5	
47.7113  6	
47.7609  5	
47.8105  3	
47.8601  5	
47.9098  3	
47.9594  3	
 48.009  3	
48.0586  6	
48.1082  7	
48.1579  6	
48.2075  4	
48.2571  7	
48.3067  2	
48.3563  6	
 48.406  3	
48.4556  3	
48.5052  6	
48.5548  3	
48.6044  4	
48.6541  1	
48.7037  1	
48.7533  5	
48.8029  4	
48.8525 10	
48.9022  5	
48.9518  8	
49.0014  7	
 49.051  6	
49.1006  4	
49.1503  4	
49.1999  5	
49.2495  2	
49.2991  1	
49.3487  1	
49.3984  6	
 49.448  6	
49.4976  3	
49.5472  6	
49.5968  3	
49.6465  6	
49.6961  3	
49.7457  4	
49.7953  6	
49.8449  3	
49.8946  7	
49.9442  5	
49.9938  2	
50.0434  4	
 50.093  6	
50.1427  5	
50.1923  4	
50.2419  4	
50.2915  3	
50.3411  3	
50.3908  6	
50.4404  5	
  50.49  3	
50.5396  5	
50.5892  3	
50.6389  6	
50.6885  2	
50.7381  3	
50.7877  5	
50.8373  4	
 50.887  7	
50.9366  7	
50.9862  2	
51.0358  3	
51.0854  5	
51.1351  7	
51.1847  4	
51.2343  7	
51.2839 12	
51.3335 15	
51.3832 17	
51.4328 39	
51.4824 46	
 51.532 77	
51.5816 44	
51.6313 31	
51.6809  9	
51.7305 14	
51.7801 12	
51.8297 10	
51.8794  9	
 51.929  8	
51.9786  3	
52.0282  3	
52.0778  5	
52.1275  4	
52.1771  2	
52.2267  3	
52.2763  5	
52.3259  6	
52.3756  5	
52.4252  4	
52.4748  6	
52.5244  2	
 52.574  6	
52.6237  4	
52.6733  6	
52.7229  4	
52.7725  9	
52.8221  2	
52.8718  4	
52.9214  4	
 52.971  6	
53.0206  3	
53.0702  4	
53.1199  6	
53.1695  1	
53.2191  7	
53.2687  2	
53.3183  3	
 53.368  3	
53.4176  4	
53.4672  2	
53.5168  2	
53.5664  5	
53.6161  3	
53.6657  4	
53.7153  3	
53.7649  3	
53.8145  6	
53.8642  6	
53.9138  5	
53.9634  8	
 54.013  4	
54.0626  3	
54.1123  5	
54.1619  7	
54.2115  6	
54.2611  3	
54.3107 10	
54.3604  8	
  54.41  2	
54.4596 14	
54.5092  4	
54.5588  7	
54.6085 10	
54.6581 11	
54.7077  3	
54.7573  3	
 54.807  2	
54.8566  8	
54.9062  2	
54.9558  9	
55.0054 11	
55.0551  4	
55.1047  7	
55.1543  2	
55.2039  5	
55.2535  4	
55.3032  3	
55.3528  5	
55.4024  0	
 55.452  4	
55.5016  5	
55.5513  6	
55.6009  3	
55.6505  2	
55.7001  6	
55.7497  4	
55.7994  7	
 55.849  7	
55.8986  2	
55.9482  4	
55.9978  4	
56.0475  1	
56.0971  4	
56.1467  6	
56.1963  3	
56.2459  1	
56.2956  4	
56.3452  2	
56.3948  2	
56.4444  3	
 56.494 10	
56.5437  5	
56.5933  4	
56.6429  3	
56.6925  3	
56.7421  3	
56.7918  4	
56.8414  7	
 56.891  3	
56.9406  6	
56.9902  5	
57.0399  7	
57.0895  9	
57.1391  2	
57.1887  7	
57.2383  2	
 57.288  3	
57.3376  4	
57.3872  2	
57.4368  2	
57.4864  1	
57.5361  6	
57.5857  6	
57.6353  4	
57.6849  3	
57.7345  6	
57.7842  2	
57.8338  6	
57.8834  7	
 57.933  5	
57.9826  7	
58.0323  5	
58.0819  4	
58.1315  2	
58.1811  3	
58.2307  7	
58.2804  3	
  58.33  8	
58.3796  3	
58.4292  7	
58.4788  3	
58.5285  5	
58.5781  3	
58.6277  6	
58.6773  2	
58.7269  4	
58.7766  5	
58.8262  8	
58.8758  2	
58.9254  4	
 58.975  2	
59.0247  0	
59.0743  3	
59.1239  2	
59.1735  2	
59.2231  7	
59.2728  2	
59.3224  5	
 59.372  3	
59.4216  5	
59.4712  3	
59.5209  2	
59.5705  6	
59.6201  7	
59.6697  2	
59.7193  2	
 59.769  7	
59.8186  4	
59.8682  4	
59.9178  4	
59.9674  5	
60.0171  4	
60.0667  5	
60.1163  3	
60.1659  5	
60.2155  6	
60.2652  4	
60.3148  5	
60.3644  1	
 60.414  5	
60.4636  5	
60.5133  4	
60.5629  2	
60.6125  4	
60.6621  6	
60.7117  2	
60.7614  4	
 60.811  7	
60.8606  5	
60.9102  5	
60.9598  8	
61.0095  7	
61.0591  7	
61.1087  6	
61.1583  2	
61.2079  3	
61.2576  7	
61.3072  4	
61.3568  3	
61.4064  7	
 61.456 18	
61.5057 14	
61.5553 17	
61.6049  8	
61.6545 11	
61.7041 12	
61.7538  6	
61.8034  6	
 61.853  2	
61.9026  7	
61.9522  8	
62.0019  7	
62.0515 10	
62.1011  5	
62.1507  5	
62.2003  6	
  62.25  4	
62.2996  1	
62.3492  2	
62.3988  5	
62.4484  3	
62.4981  6	
62.5477  8	
62.5973  5	
62.6469  7	
62.6965  2	
62.7462  2	
62.7958  8	
62.8454  5	
 62.895  2	
62.9446  5	
62.9943  2	
63.0439  2	
63.0935  8	
63.1431  4	
63.1927  4	
63.2424  3	
 63.292  4	
63.3416  3	
63.3912  7	
63.4408  5	
63.4905  4	
63.5401 10	
63.5897 14	
63.6393 34	
63.6889 26	
63.7386 20	
63.7882  6	
63.8378  5	
63.8874  8	
 63.937  9	
63.9867  8	
64.0363  7	
64.0859  5	
64.1355  5	
64.1851  3	
64.2348  2	
64.2844  5	
 64.334  8	
64.3836  4	
64.4332  3	
64.4829  1	
64.5325  3	
64.5821  8	
64.6317  1	
64.6814  4	
 64.731  9	
64.7806  5	
64.8302  5	
64.8798  4	
64.9295  7	
64.9791  2	
65.0287  4	
65.0783  6	
65.1279  3	
65.1776  5	
65.2272 11	
65.2768  3	
65.3264 14	
 65.376 13	
65.4257 16	
65.4753 31	
65.5249 28	
65.5745 23	
65.6241 19	
65.6738 10	
65.7234 10	
 65.773  6	
65.8226 10	
65.8722  6	
65.9219  5	
65.9715  6	
66.0211  5	
66.0707  5	
66.1203  5	
  66.17  6	
66.2196  4	
66.2692  8	
66.3188  2	
66.3684  3	
66.4181  2	
66.4677  5	
66.5173  4	
66.5669  2	
66.6165  4	
66.6662  7	
66.7158  8	
66.7654  4	
 66.815  4	
66.8646  5	
66.9143  1	
66.9639  5	
67.0135  2	
67.0631  8	
67.1127  8	
67.1624  2	
 67.212  3	
67.2616  3	
67.3112  2	
67.3608  7	
67.4105  4	
67.4601  7	
67.5097  3	
67.5593  4	
67.6089  7	
67.6586  4	
67.7082  4	
67.7578  6	
67.8074  3	
 67.857  3	
67.9067  2	
67.9563  4	
68.0059  4	
68.0555  6	
68.1051  3	
68.1548  3	
68.2044  4	
 68.254  3	
68.3036  2	
68.3532  8	
68.4029  4	
68.4525  4	
68.5021  4	
68.5517  5	
68.6013  4	
 68.651  5	
68.7006  4	
68.7502  4	
68.7998  4	
68.8494  6	
68.8991  4	
68.9487  2	
68.9983 10	
69.0479  5	
69.0975  4	
69.1472  3	
69.1968  2	
69.2464  1	
 69.296  7	
69.3456  3	
69.3953  3	
69.4449  2	
69.4945  2	
69.5441  5	
69.5937  2	
69.6434  2	
 69.693  4	
69.7426  4	
69.7922  2	
69.8418  7	
69.8915  6	
69.9411  3	
69.9907  2	
70.0403  5	
70.0899  6	
70.1396  5	
70.1892  4	
70.2388  6	
70.2884  6	
 70.338  6	
70.3877  2	
70.4373  6	
70.4869  2	
70.5365  5	
70.5861  3	
70.6358  6	
70.6854  2	
 70.735  6	
70.7846  5	
70.8342  5	
70.8839  5	
70.9335  7	
70.9831  4	
71.0327  5	
71.0823  1	
 71.132  1	
71.1816  5	
71.2312  5	
71.2808  3	
71.3304  6	
71.3801  4	
71.4297  2	
71.4793  4	
71.5289  3	
71.5785  4	
71.6282  0	
71.6778  2	
71.7274  4	
 71.777  5	
71.8266  3	
71.8763  2	
71.9259  2	
71.9755  5	
72.0251  2	
72.0747  1	
72.1244  1	
 72.174  1	
72.2236  3	
72.2732  3	
72.3228  4	
72.3725  4	
72.4221  2	
72.4717  1	
72.5213  3	
72.5709  2	
72.6206  3	
72.6702  3	
72.7198  1	
72.7694  4	
 72.819  4	
72.8687  5	
72.9183  7	
72.9679  8	
73.0175  4	
73.0671  4	
73.1168  1	
73.1664  5	
 73.216  2	
73.2656  3	
73.3152  4	
73.3649  2	
73.4145  2	
73.4641  4	
73.5137  7	
73.5633  3	
 73.613  1	
73.6626  2	
73.7122  4	
73.7618  5	
73.8114  3	
73.8611  4	
73.9107  1	
73.9603  4	
74.0099  0	
74.0595  4	
74.1092  2	
74.1588  4	
74.2084  2	
 74.258  0	
74.3076  5	
74.3573  3	
74.4069  3	
74.4565  7	
74.5061  6	
74.5558  1	
74.6054  7	
 74.655  5	
74.7046  6	
74.7542  3	
74.8039  5	
74.8535  3	
74.9031  5	
74.9527  3	
75.0023  6	
 75.052  7	
75.1016  2	
75.1512  3	
75.2008  5	
75.2504  6	
75.3001  4	
75.3497  4	
75.3993  1	
75.4489  1	
75.4985  2	
75.5482  8	
75.5978  2	
75.6474  4	
 75.697  4	
75.7466  3	
75.7963  8	
75.8459  5	
75.8955  1	
75.9451  1	
75.9947  2	
76.0444  3	
 76.094  3	
76.1436  4	
76.1932  2	
76.2428  3	
76.2925  5	
76.3421  3	
76.3917  4	
76.4413  3	
76.4909  6	
76.5406  6	
76.5902  5	
76.6398  5	
76.6894  2	
 76.739  9	
76.7887 15	
76.8383 16	
76.8879 11	
76.9375  7	
76.9871 25	
77.0368 23	
77.0864 18	
 77.136 16	
77.1856 13	
77.2352  6	
77.2849  5	
77.3345  3	
77.3841  5	
77.4337  3	
77.4833  4	
 77.533  2	
77.5826  3	
77.6322  5	
77.6818  4	
77.7314  3	
77.7811  5	
77.8307  3	
77.8803  5	
77.9299  5	
77.9795  2	
78.0292  3	
78.0788  2	
78.1284  6	
 78.178  5	
78.2276  4	
78.2773  6	
78.3269 10	
78.3765  7	
78.4261  5	
78.4757  5	
78.5254  4	
 78.575  6	
78.6246  4	
78.6742  6	
78.7238  2	
78.7735  3	
78.8231  1	
78.8727  3	
78.9223  4	
78.9719  5	
79.0216  5	
79.0712  2	
79.1208  5	
79.1704  9	
  79.22  2	
79.2697  3	
79.3193  4	
79.3689  6	
79.4185  1	
79.4681  3	
79.5178  3	
79.5674  2	
 79.617  5	
79.6666  7	
79.7162  1	
79.7659  3	
79.8155  2	
79.8651  5	
79.9147  1	
79.9643  5	
 80.014  2	
