10 57 
10.0496 60 
10.0992 52 
10.1489 50 
10.1985 40 
10.2481 51 
10.2977 56 
10.3473 40 
 10.397 50 
10.4466 40 
10.4962 45 
10.5458 46 
10.5954 48 
10.6451 39 
10.6947 36 
10.7443 49 
10.7939 31 
10.8435 45 
10.8932 43 
10.9428 34 
10.9924 43 
 11.042 32 
11.0916 40 
11.1413 53 
11.1909 39 
11.2405 36 
11.2901 32 
11.3397 34 
11.3894 39 
 11.439 46 
11.4886 28 
11.5382 34 
11.5878 36 
11.6375 37 
11.6871 38 
11.7367 41 
11.7863 30 
11.8359 40 
11.8856 31 
11.9352 28 
11.9848 27 
12.0344 23 
 12.084 32 
12.1337 29 
12.1833 23 
12.2329 39 
12.2825 30 
12.3321 34 
12.3818 24 
12.4314 22 
 12.481 31 
12.5306 30 
12.5802 35 
12.6299 53 
12.6795 68 
12.7291 43 
12.7787 29 
12.8283 39 
 12.878 34 
12.9276 35 
12.9772 19 
13.0268 30 
13.0764 25 
13.1261 17 
13.1757 22 
13.2253 29 
13.2749 23 
13.3245 29 
13.3742 20 
13.4238 27 
13.4734 20 
 13.523 21 
13.5726 27 
13.6223 16 
13.6719 21 
13.7215 27 
13.7711 19 
13.8207 25 
13.8704 20 
  13.92 33 
13.9696 33 
14.0192 54 
14.0688 85 
14.1185  120 
14.1681 74 
14.2177 39 
14.2673 22 
14.3169 19 
14.3666 20 
14.4162 15 
14.4658 18 
14.5154 21 
 14.565 16 
14.6147 18 
14.6643 18 
14.7139 12 
14.7635 15 
14.8131 13 
14.8628  9 
14.9124 21 
 14.962 17 
15.0116  8 
15.0613 18 
15.1109 17 
15.1605 15 
15.2101  9 
15.2597 12 
15.3094 16 
 15.359 13 
15.4086 14 
15.4582  9 
15.5078 22 
15.5575 25 
15.6071 15 
15.6567 17 
15.7063 11 
15.7559 20 
15.8056 19 
15.8552  9 
15.9048  7 
15.9544 11 
 16.004 12 
16.0537  6 
16.1033 11 
16.1529 14 
16.2025  8 
16.2521 11 
16.3018 12 
16.3514 12 
 16.401 11 
16.4506 11 
16.5002 10 
16.5499  9 
16.5995 13 
16.6491 14 
16.6987 15 
16.7483  9 
 16.798  8 
16.8476 16 
16.8972  6 
16.9468 14 
16.9964  6 
17.0461 13 
17.0957  8 
17.1453  9 
17.1949 14 
17.2445 10 
17.2942 11 
17.3438 12 
17.3934 13 
 17.443  9 
17.4926 13 
17.5423  9 
17.5919 10 
17.6415  9 
17.6911 10 
17.7407 10 
17.7904  7 
  17.84  8 
17.8896 15 
17.9392  6 
17.9888  8 
18.0385  5 
18.0881 12 
18.1377  9 
18.1873 11 
18.2369 15 
18.2866  5 
18.3362 10 
18.3858  9 
18.4354 13 
 18.485  4 
18.5347  9 
18.5843  9 
18.6339 12 
18.6835  9 
18.7331  8 
18.7828 10 
18.8324  7 
 18.882  5 
18.9316  6 
18.9812  5 
19.0309 12 
19.0805  8 
19.1301 10 
19.1797  8 
19.2293 11 
 19.279 13 
19.3286  8 
19.3782 15 
19.4278 11 
19.4774  6 
19.5271 14 
19.5767 10 
19.6263 10 
19.6759 12 
19.7255  9 
19.7752  8 
19.8248 16 
19.8744 11 
 19.924 16 
19.9736 36 
20.0233 29 
20.0729 14 
20.1225 14 
20.1721  8 
20.2217 12 
20.2714 14 
 20.321  8 
20.3706  7 
20.4202  9 
20.4698  3 
20.5195  8 
20.5691  7 
20.6187 10 
20.6683  8 
20.7179 10 
20.7676  9 
20.8172 11 
20.8668 15 
20.9164 12 
 20.966  5 
21.0157  5 
21.0653  7 
21.1149 15 
21.1645 11 
21.2141  4 
21.2638 11 
21.3134 10 
 21.363  8 
21.4126 13 
21.4622  7 
21.5119 13 
21.5615  8 
21.6111 10 
21.6607 10 
21.7103  8 
  21.76  5 
21.8096  9 
21.8592 12 
21.9088 13 
21.9584 10 
22.0081 12 
22.0577  8 
22.1073  5 
22.1569  9 
22.2065 13 
22.2562  6 
22.3058 15 
22.3554  9 
 22.405  7 
22.4546  4 
22.5043  8 
22.5539 12 
22.6035  8 
22.6531  7 
22.7027  6 
22.7524 13 
 22.802 11 
22.8516  7 
22.9012 10 
22.9508  9 
23.0005  8 
23.0501  8 
23.0997 10 
23.1493  7 
23.1989  6 
23.2486 16 
23.2982  7 
23.3478 10 
23.3974  9 
 23.447  7 
23.4967  8 
23.5463  8 
23.5959 11 
23.6455 11 
23.6951  8 
23.7448 10 
23.7944  7 
 23.844 10 
23.8936 12 
23.9432 12 
23.9929 11 
24.0425  8 
24.0921 12 
24.1417  9 
24.1913 11 
 24.241 12 
24.2906  7 
24.3402 11 
24.3898  5 
24.4394 17 
24.4891 30 
24.5387 33 
24.5883 12 
24.6379 15 
24.6875  9 
24.7372  9 
24.7868  7 
24.8364 10 
 24.886  4 
24.9357 11 
24.9853 12 
25.0349  8 
25.0845  5 
25.1341  7 
25.1838 12 
25.2334 16 
 25.283 11 
25.3326 11 
25.3822 13 
25.4319 13 
25.4815 13 
25.5311 13 
25.5807 12 
25.6303  9 
  25.68  4 
25.7296 12 
25.7792  7 
25.8288  9 
25.8784 14 
25.9281  7 
25.9777 13 
26.0273 13 
26.0769  8 
26.1265 15 
26.1762 10 
26.2258 14 
26.2754 18 
 26.325 18 
26.3746 19 
26.4243 19 
26.4739 53 
26.5235 70 
26.5731 53 
26.6227 23 
26.6724 14 
 26.722 14 
26.7716 12 
26.8212 15 
26.8708 13 
26.9205 12 
26.9701  7 
27.0197 10 
27.0693  8 
27.1189  8 
27.1686 10 
27.2182  9 
27.2678 12 
27.3174 12 
 27.367  9 
27.4167 14 
27.4663  6 
27.5159 12 
27.5655 14 
27.6151  5 
27.6648  7 
27.7144 14 
 27.764 14 
27.8136 11 
27.8632  8 
27.9129  7 
27.9625 12 
28.0121  9 
28.0617  7 
28.1113 13 
 28.161 16 
28.2106 17 
28.2602 15 
28.3098 22 
28.3594 39 
28.4091 51 
28.4587 35 
28.5083 19 
28.5579 19 
28.6075  4 
28.6572 15 
28.7068  6 
28.7564  6 
 28.806 10 
28.8556  5 
28.9053 10 
28.9549 10 
29.0045  9 
29.0541 12 
29.1037  9 
29.1534 10 
 29.203  6 
29.2526  6 
29.3022  4 
29.3518 12 
29.4015  7 
29.4511  5 
29.5007  8 
29.5503 18 
29.5999  8 
29.6496  8 
29.6992  7 
29.7488 11 
29.7984 11 
 29.848 11 
29.8977  2 
29.9473  3 
29.9969  5 
30.0465  4 
30.0961  6 
30.1458  8 
30.1954  7 
 30.245 10 
30.2946 10 
30.3442  9 
30.3939  9 
30.4435  6 
30.4931  5 
30.5427  6 
30.5923  9 
 30.642 10 
30.6916 10 
30.7412  9 
30.7908  6 
30.8404  6 
30.8901 10 
30.9397  8 
30.9893  8 
31.0389 11 
31.0885  8 
31.1382 10 
31.1878  9 
31.2374  8 
 31.287  5 
31.3366 12 
31.3863  8 
31.4359  6 
31.4855 13 
31.5351 12 
31.5847 10 
31.6344  6 
 31.684 13 
31.7336 30 
31.7832 45 
31.8328 54 
31.8825 36 
31.9321 20 
31.9817 21 
32.0313  9 
32.0809  9 
32.1306 15 
32.1802 12 
32.2298  9 
32.2794  9 
 32.329 15 
32.3787  5 
32.4283  2 
32.4779  7 
32.5275  7 
32.5771 14 
32.6268  9 
32.6764  8 
 32.726  5 
32.7756  4 
32.8252  2 
32.8749  4 
32.9245 11 
32.9741  8 
33.0237  4 
33.0733  8 
 33.123 10 
33.1726  7 
33.2222  5 
33.2718  7 
33.3214  4 
33.3711  5 
33.4207  8 
33.4703  6 
33.5199  7 
33.5695  6 
33.6192 12 
33.6688 14 
33.7184 29 
 33.768 29 
33.8176 19 
33.8673 21 
33.9169 11 
33.9665 11 
34.0161  5 
34.0657  9 
34.1154  4 
 34.165  3 
34.2146  8 
34.2642  4 
34.3138  7 
34.3635  9 
34.4131  5 
34.4627  9 
34.5123  8 
34.5619 11 
34.6116 10 
34.6612  7 
34.7108  7 
34.7604  7 
  34.81  3 
34.8597  8 
34.9093 17 
34.9589 29 
35.0085 14 
35.0582  9 
35.1078  7 
35.1574  6 
 35.207  3 
35.2566  1 
35.3063  6 
35.3559  5 
35.4055  6 
35.4551  2 
35.5047  2 
35.5544  5 
 35.604  4 
35.6536  6 
35.7032  5 
35.7528  4 
35.8025  1 
35.8521  6 
35.9017  9 
35.9513  5 
36.0009  7 
36.0506  7 
36.1002  4 
36.1498 11 
36.1994  8 
 36.249  3 
36.2987  7 
36.3483  3 
36.3979  7 
36.4475  7 
36.4971  6 
36.5468  5 
36.5964  3 
 36.646  7 
36.6956  6 
36.7452  8 
36.7949  4 
36.8445  7 
36.8941 11 
36.9437  5 
36.9933  4 
 37.043  9 
37.0926  6 
37.1422  6 
37.1918  6 
37.2414  5 
37.2911  6 
37.3407  9 
37.3903  9 
37.4399  7 
37.4895  7 
37.5392 11 
37.5888 12 
37.6384 20 
 37.688 39 
37.7376 56 
37.7873 53 
37.8369 38 
37.8865 20 
37.9361 11 
37.9857 11 
38.0354 10 
 38.085  4 
38.1346  7 
38.1842  3 
38.2338  5 
38.2835  6 
38.3331  2 
38.3827  2 
38.4323  8 
38.4819  9 
38.5316  5 
38.5812  4 
38.6308  6 
38.6804 10 
  38.73  8 
38.7797 12 
38.8293  7 
38.8789  6 
38.9285  4 
38.9781  6 
39.0278  3 
39.0774  4 
 39.127  3 
39.1766  2 
39.2262  4 
39.2759 10 
39.3255  8 
39.3751  5 
39.4247  5 
39.4743  2 
 39.524  6 
39.5736 10 
39.6232  3 
39.6728  7 
39.7224  7 
39.7721  5 
39.8217 11 
39.8713  7 
39.9209  6 
39.9705  3 
40.0202 10 
40.0698  9 
40.1194  6 
 40.169  4 
40.2186  7 
40.2683  8 
40.3179 10 
40.3675 10 
40.4171  9 
40.4667 11 
40.5164 20 
 40.566 32 
40.6156 30 
40.6652 19 
40.7148 15 
40.7645 14 
40.8141  3 
40.8637  3 
40.9133  5 
40.9629  6 
41.0126  9 
41.0622  5 
41.1118  8 
41.1614  6 
 41.211  6 
41.2607  5 
41.3103  8 
41.3599  3 
41.4095  4 
41.4591  7 
41.5088 12 
41.5584  0 
 41.608  4 
41.6576  5 
41.7072  5 
41.7569  5 
41.8065  4 
41.8561  7 
41.9057  5 
41.9553  7 
 42.005  4 
42.0546  6 
42.1042  6 
42.1538  3 
42.2034  4 
42.2531  6 
42.3027  6 
42.3523  5 
42.4019  3 
42.4515  3 
42.5012 10 
42.5508 11 
42.6004  7 
  42.65  6 
42.6996  7 
42.7493  5 
42.7989  7 
42.8485  5 
42.8981 10 
42.9477  9 
42.9974  9 
 43.047 11 
43.0966 29 
43.1462 33 
43.1958 27 
43.2455 17 
43.2951  9 
43.3447  3 
43.3943  7 
43.4439  6 
43.4936  7 
43.5432  6 
43.5928  4 
43.6424  5 
 43.692  8 
43.7417  4 
43.7913  4 
43.8409  5 
43.8905  5 
43.9401  2 
43.9898  7 
44.0394  4 
 44.089  8 
44.1386  4 
44.1882  3 
44.2379  3 
44.2875  4 
44.3371  6 
44.3867  3 
44.4363  3 
 44.486  7 
44.5356  5 
44.5852  6 
44.6348  6 
44.6844  5 
44.7341  4 
44.7837  2 
44.8333  1 
44.8829  5 
44.9326  6 
44.9822  7 
45.0318  1 
45.0814  2 
 45.131  6 
45.1807  5 
45.2303  5 
45.2799  3 
45.3295  5 
45.3791  6 
45.4288  4 
45.4784  4 
 45.528  4 
45.5776  4 
45.6272  4 
45.6769  4 
45.7265  6 
45.7761  6 
45.8257  3 
45.8753  8 
 45.925  7 
45.9746  6 
46.0242  3 
46.0738  5 
46.1234  4 
46.1731  7 
46.2227  4 
46.2723  4 
46.3219  3 
46.3715  5 
46.4212  2 
46.4708  5 
46.5204  6 
  46.57  5 
46.6196  2 
46.6693  2 
46.7189  1 
46.7685  3 
46.8181  3 
46.8677  2 
46.9174  3 
 46.967  3 
47.0166  3 
47.0662  3 
47.1158  6 
47.1655  6 
47.2151  5 
47.2647  2 
47.3143  2 
47.3639  9 
47.4136  5 
47.4632  4 
47.5128  3 
47.5624  2 
 47.612  0 
47.6617  7 
47.7113  2 
47.7609  4 
47.8105  9 
47.8601  5 
47.9098  4 
47.9594  3 
 48.009  5 
48.0586  3 
48.1082  3 
48.1579  6 
48.2075  2 
48.2571  2 
48.3067  8 
48.3563  3 
 48.406  3 
48.4556  7 
48.5052  1 
48.5548  2 
48.6044  5 
48.6541  8 
48.7037  6 
48.7533  4 
48.8029  4 
48.8525  2 
48.9022  1 
48.9518  4 
49.0014  2 
 49.051  4 
49.1006  4 
49.1503  2 
49.1999  6 
49.2495  5 
49.2991  5 
49.3487  4 
49.3984  9 
 49.448  9 
49.4976  1 
49.5472  2 
49.5968  3 
49.6465  3 
49.6961  7 
49.7457  3 
49.7953  0 
49.8449  3 
49.8946  6 
49.9442  6 
49.9938  0 
50.0434  4 
 50.093  5 
50.1427  7 
50.1923 10 
50.2419  6 
50.2915  9 
50.3411  6 
50.3908  7 
50.4404  6 
  50.49  1 
50.5396  3 
50.5892  2 
50.6389  1 
50.6885  4 
50.7381  0 
50.7877  2 
50.8373  4 
 50.887 10 
50.9366  5 
50.9862  4 
51.0358  7 
51.0854  5 
51.1351  8 
51.1847  5 
51.2343 12 
51.2839  2 
51.3335  6 
51.3832 11 
51.4328 29 
51.4824 44 
 51.532 55 
51.5816 51 
51.6313 21 
51.6809 22 
51.7305  8 
51.7801  4 
51.8297 13 
51.8794  3 
 51.929  4 
51.9786  5 
52.0282 11 
52.0778  0 
52.1275 10 
52.1771 10 
52.2267  6 
52.2763  8 
52.3259  3 
52.3756 11 
52.4252  3 
52.4748  4 
52.5244  5 
 52.574  7 
52.6237  6 
52.6733  2 
52.7229  2 
52.7725  6 
52.8221  3 
52.8718  3 
52.9214  3 
 52.971  9 
53.0206  7 
53.0702  5 
53.1199  4 
53.1695  4 
53.2191  4 
53.2687  6 
53.3183  4 
 53.368  3 
53.4176  1 
53.4672  8 
53.5168  4 
53.5664  5 
53.6161  0 
53.6657  4 
53.7153  4 
53.7649  5 
53.8145  5 
53.8642  5 
53.9138  4 
53.9634  4 
 54.013  2 
54.0626  3 
54.1123  3 
54.1619  8 
54.2115  6 
54.2611  7 
54.3107  5 
54.3604  3 
  54.41 11 
54.4596  7 
54.5092 17 
54.5588 20 
54.6085 11 
54.6581  7 
54.7077  4 
54.7573  4 
 54.807  3 
54.8566  6 
54.9062  3 
54.9558  3 
55.0054  4 
55.0551  2 
55.1047  1 
55.1543  6 
55.2039  2 
55.2535  3 
55.3032  5 
55.3528  2 
55.4024  3 
 55.452  2 
55.5016  2 
55.5513  7 
55.6009  8 
55.6505  6 
55.7001  8 
55.7497  4 
55.7994  3 
 55.849  4 
55.8986  5 
55.9482  3 
55.9978  4 
56.0475  3 
56.0971  7 
56.1467  2 
56.1963  5 
56.2459  2 
56.2956  7 
56.3452  6 
56.3948  4 
56.4444  2 
 56.494  5 
56.5437  2 
56.5933  7 
56.6429  2 
56.6925  2 
56.7421  2 
56.7918  3 
56.8414  5 
 56.891  1 
56.9406  3 
56.9902 10 
57.0399  5 
57.0895  8 
57.1391  6 
57.1887  2 
57.2383  6 
 57.288  7 
57.3376  5 
57.3872  5 
57.4368  2 
57.4864  5 
57.5361  1 
57.5857  4 
57.6353  2 
57.6849  2 
57.7345  2 
57.7842  7 
57.8338  4 
57.8834  7 
 57.933  2 
57.9826  4 
58.0323  5 
58.0819  2 
58.1315  4 
58.1811  1 
58.2307  4 
58.2804  6 
  58.33  4 
58.3796  5 
58.4292  8 
58.4788  5 
58.5285  1 
58.5781  7 
58.6277  2 
58.6773  5 
58.7269  3 
58.7766 10 
58.8262  1 
58.8758  5 
58.9254  3 
 58.975  1 
59.0247  7 
59.0743  4 
59.1239  2 
59.1735  0 
59.2231  7 
59.2728  5 
59.3224  6 
 59.372  2 
59.4216  4 
59.4712  1 
59.5209  4 
59.5705  2 
59.6201  4 
59.6697  6 
59.7193  1 
 59.769  2 
59.8186  4 
59.8682  4 
59.9178  2 
59.9674  4 
60.0171  6 
60.0667  3 
60.1163  6 
60.1659  5 
60.2155  6 
60.2652  5 
60.3148  5 
60.3644  6 
 60.414  7 
60.4636  8 
60.5133  4 
60.5629  6 
60.6125 10 
60.6621 13 
60.7117  4 
60.7614  5 
 60.811  7 
60.8606  5 
60.9102  7 
60.9598  4 
61.0095  3 
61.0591  1 
61.1087  6 
61.1583  3 
61.2079  4 
61.2576  1 
61.3072  4 
61.3568  5 
61.4064 15 
 61.456 15 
61.5057  9 
61.5553 19 
61.6049 13 
61.6545 12 
61.7041  8 
61.7538  6 
61.8034  5 
 61.853  8 
61.9026 10 
61.9522  3 
62.0019  9 
62.0515  3 
62.1011  3 
62.1507  9 
62.2003  6 
  62.25  2 
62.2996  4 
62.3492  3 
62.3988  5 
62.4484  2 
62.4981  1 
62.5477  5 
62.5973  7 
62.6469  6 
62.6965  9 
62.7462  4 
62.7958  1 
62.8454  5 
 62.895  6 
62.9446  3 
62.9943  3 
63.0439  4 
63.0935  4 
63.1431  5 
63.1927  3 
63.2424  5 
 63.292  4 
63.3416  5 
63.3912  3 
63.4408  9 
63.4905  8 
63.5401 11 
63.5897 23 
63.6393 30 
63.6889 45 
63.7386 26 
63.7882 16 
63.8378  7 
63.8874  4 
 63.937  7 
63.9867  4 
64.0363  6 
64.0859  2 
64.1355  3 
64.1851  8 
64.2348  4 
64.2844  7 
 64.334  8 
64.3836  8 
64.4332  7 
64.4829  6 
64.5325  2 
64.5821 11 
64.6317  4 
64.6814  3 
 64.731 11 
64.7806  4 
64.8302  5 
64.8798  1 
64.9295  1 
64.9791  2 
65.0287  2 
65.0783  5 
65.1279  6 
65.1776  8 
65.2272  5 
65.2768  7 
65.3264  8 
 65.376  9 
65.4257  9 
65.4753 20 
65.5249 29 
65.5745 12 
65.6241 22 
65.6738 15 
65.7234  8 
 65.773  4 
65.8226  7 
65.8722  6 
65.9219  5 
65.9715  2 
66.0211  6 
66.0707  7 
66.1203  4 
  66.17  2 
66.2196  3 
66.2692  7 
66.3188  6 
66.3684  4 
66.4181  9 
66.4677 11 
66.5173  8 
66.5669  7 
66.6165  5 
66.6662  8 
66.7158  3 
66.7654  1 
 66.815  4 
66.8646  9 
66.9143  3 
66.9639  6 
67.0135  5 
67.0631  3 
67.1127  3 
67.1624  6 
 67.212  1 
67.2616  3 
67.3112  4 
67.3608  0 
67.4105  2 
67.4601  3 
67.5097  7 
67.5593  5 
67.6089  5 
67.6586  4 
67.7082  4 
67.7578  1 
67.8074  5 
 67.857  5 
67.9067  3 
67.9563  7 
68.0059 11 
68.0555  5 
68.1051  5 
68.1548  7 
68.2044  6 
 68.254  5 
68.3036  7 
68.3532  3 
68.4029  6 
68.4525 11 
68.5021  4 
68.5517  3 
68.6013  3 
 68.651  4 
68.7006  2 
68.7502  5 
68.7998  3 
68.8494 10 
68.8991  4 
68.9487  2 
68.9983  4 
69.0479  4 
69.0975  1 
69.1472  6 
69.1968  4 
69.2464  5 
 69.296  5 
69.3456  4 
69.3953  1 
69.4449  3 
69.4945  1 
69.5441  3 
69.5937  5 
69.6434  2 
 69.693  5 
69.7426  3 
69.7922  3 
69.8418  1 
69.8915  1 
69.9411  3 
69.9907  3 
70.0403  5 
70.0899  3 
70.1396  3 
70.1892  7 
70.2388  4 
70.2884  4 
 70.338  5 
70.3877  4 
70.4373  2 
70.4869  3 
70.5365  1 
70.5861  2 
70.6358  9 
70.6854  8 
 70.735  5 
70.7846  2 
70.8342  4 
70.8839  5 
70.9335  5 
70.9831  7 
71.0327  3 
71.0823  3 
 71.132  4 
71.1816  5 
71.2312  5 
71.2808  4 
71.3304  3 
71.3801  5 
71.4297  5 
71.4793  1 
71.5289  3 
71.5785  1 
71.6282  6 
71.6778  4 
71.7274  5 
 71.777  2 
71.8266  2 
71.8763  0 
71.9259  2 
71.9755  4 
72.0251  2 
72.0747  6 
72.1244  5 
 72.174  3 
72.2236  2 
72.2732  6 
72.3228  6 
72.3725  4 
72.4221  3 
72.4717  3 
72.5213  3 
72.5709  4 
72.6206  3 
72.6702  3 
72.7198  2 
72.7694  5 
 72.819  4 
72.8687  3 
72.9183  6 
72.9679  5 
73.0175  2 
73.0671  3 
73.1168  6 
73.1664  4 
 73.216  5 
73.2656  5 
73.3152  2 
73.3649  3 
73.4145  6 
73.4641  4 
73.5137  4 
73.5633  4 
 73.613  6 
73.6626  4 
73.7122  4 
73.7618  4 
73.8114  3 
73.8611  6 
73.9107  5 
73.9603  2 
74.0099  3 
74.0595  3 
74.1092  5 
74.1588  2 
74.2084  5 
 74.258  2 
74.3076  3 
74.3573  3 
74.4069  2 
74.4565  6 
74.5061  2 
74.5558  1 
74.6054  5 
 74.655  4 
74.7046  4 
74.7542  3 
74.8039  4 
74.8535  1 
74.9031  4 
74.9527  4 
75.0023  4 
 75.052  4 
75.1016  4 
75.1512  2 
75.2008  4 
75.2504  8 
75.3001  3 
75.3497  5 
75.3993  1 
75.4489  4 
75.4985  9 
75.5482  3 
75.5978  1 
75.6474  6 
 75.697  6 
75.7466  2 
75.7963  2 
75.8459  3 
75.8955  7 
75.9451  2 
75.9947  2 
76.0444  3 
 76.094  4 
76.1436  2 
76.1932  4 
76.2428  2 
76.2925  5 
76.3421  5 
76.3917  3 
76.4413  2 
76.4909  4 
76.5406  2 
76.5902  3 
76.6398  6 
76.6894  8 
 76.739 18 
76.7887 16 
76.8383 11 
76.8879 13 
76.9375  9 
76.9871  6 
77.0368  9 
77.0864 12 
 77.136 12 
77.1856  4 
77.2352  4 
77.2849  4 
77.3345  8 
77.3841  3 
77.4337  9 
77.4833  4 
 77.533  3 
77.5826  3 
77.6322  2 
77.6818  5 
77.7314  5 
77.7811  3 
77.8307  2 
77.8803  7 
77.9299  7 
77.9795  3 
78.0292  6 
78.0788  5 
78.1284  4 
 78.178  9 
78.2276  7 
78.2773  3 
78.3269  8 
78.3765  7 
78.4261  5 
78.4757  4 
78.5254  6 
 78.575  4 
78.6246  4 
78.6742  2 
78.7238  1 
78.7735  3 
78.8231  4 
78.8727  4 
78.9223  4 
78.9719  6 
79.0216  3 
79.0712  5 
79.1208  3 
79.1704  1 
  79.22  4 
79.2697  2 
79.3193  3 
79.3689  3 
79.4185  2 
79.4681  6 
79.5178  8 
79.5674  3 
 79.617  4 
79.6666  2 
79.7162  7 
79.7659  3 
79.8155  5 
79.8651  3 
79.9147  3 
79.9643  4 
 80.014  1 
