5.00000 821.000
5.02000 801.000
5.04000 762.000
5.06000 745.000
5.08000 776.000
5.10000 793.000
5.12000 763.000
5.14000 753.000
5.16000 747.000
5.18000 807.000
5.20000 738.000
5.22000 773.000
5.24000 765.000
5.26000 751.000
5.28000 740.000
5.30000 727.000
5.32000 779.000
5.34000 773.000
5.36000 707.000
5.38000 721.000
5.40000 761.000
5.42000 722.000
5.44000 709.000
5.46000 710.000
5.48000 706.000
5.50000 692.000
5.52000 701.000
5.54000 687.000
5.56000 755.000
5.58000 693.000
5.60000 766.000
5.62000 670.000
5.64000 711.000
5.66000 725.000
5.68000 668.000
5.70000 723.000
5.72000 676.000
5.74000 710.000
5.76000 717.000
5.78000 654.000
5.80000 653.000
5.82000 640.000
5.84000 694.000
5.86000 690.000
5.88000 672.000
5.90000 670.000
5.92000 691.000
5.94000 650.000
5.96000 701.000
5.98000 632.000
6.00000 630.000
6.02000 640.000
6.04000 663.000
6.06000 669.000
6.08000 662.000
6.10000 624.000
6.12000 639.000
6.14000 598.000
6.16000 606.000
6.18000 641.000
6.20000 639.000
6.22000 671.000
6.24000 628.000
6.26000 640.000
6.28000 642.000
6.30000 652.000
6.32000 625.000
6.34000 655.000
6.36000 644.000
6.38000 658.000
6.40000 568.000
6.42000 622.000
6.44000 610.000
6.46000 601.000
6.48000 592.000
6.50000 604.000
6.52000 607.000
6.54000 573.000
6.56000 598.000
6.58000 591.000
6.60000 570.000
6.62000 590.000
6.64000 586.000
6.66000 582.000
6.68000 588.000
6.70000 597.000
6.72000 593.000
6.74000 572.000
6.76000 595.000
6.78000 604.000
6.80000 617.000
6.82000 552.000
6.84000 565.000
6.86000 573.000
6.88000 596.000
6.90000 536.000
6.92000 573.000
6.94000 548.000
6.96000 609.000
6.98000 578.000
7.00000 554.000
7.02000 563.000
7.04000 537.000
7.06000 576.000
7.08000 537.000
7.10000 555.000
7.12000 545.000
7.14000 537.000
7.16000 514.000
7.18000 575.000
7.20000 548.000
7.22000 516.000
7.24000 531.000
7.26000 511.000
7.28000 559.000
7.30000 549.000
7.32000 502.000
7.34000 524.000
7.36000 511.000
7.38000 508.000
7.40000 502.000
7.42000 515.000
7.44000 548.000
7.46000 545.000
7.48000 525.000
7.50000 554.000
7.52000 483.000
7.54000 502.000
7.56000 564.000
7.58000 514.000
7.60000 520.000
7.62000 497.000
7.64000 508.000
7.66000 515.000
7.68000 497.000
7.70000 497.000
7.72000 473.000
7.74000 529.000
7.76000 475.000
7.78000 482.000
7.80000 530.000
7.82000 522.000
7.84000 518.000
7.86000 519.000
7.88000 481.000
7.90000 478.000
7.92000 539.000
7.94000 503.000
7.96000 464.000
7.98000 455.000
8.00000 513.000
8.02000 493.000
8.04000 475.000
8.06000 502.000
8.08000 469.000
8.10000 449.000
8.12000 475.000
8.14000 475.000
8.16000 499.000
8.18000 443.000
8.20000 492.000
8.22000 482.000
8.24000 493.000
8.26000 466.000
8.28000 492.000
8.30000 486.000
8.32000 486.000
8.34000 501.000
8.36000 425.000
8.38000 456.000
8.40000 427.000
8.42000 458.000
8.44000 479.000
8.46000 486.000
8.48000 458.000
8.50000 449.000
8.52000 471.000
8.54000 450.000
8.56000 413.000
8.58000 480.000
8.60000 460.000
8.62000 442.000
8.64000 440.000
8.66000 481.000
8.68000 430.000
8.70000 441.000
8.72000 448.000
8.74000 449.000
8.76000 401.000
8.78000 418.000
8.80000 452.000
8.82000 413.000
8.84000 411.000
8.86000 416.000
8.88000 422.000
8.90000 433.000
8.92000 444.000
8.94000 430.000
8.96000 437.000
8.98000 444.000
9.00000 462.000
9.02000 442.000
9.04000 435.000
9.06000 446.000
9.08000 390.000
9.10000 451.000
9.12000 407.000
9.14000 429.000
9.16000 406.000
9.18000 462.000
9.20000 405.000
9.22000 462.000
9.24000 432.000
9.26000 445.000
9.28000 431.000
9.30000 412.000
9.32000 423.000
9.34000 434.000
9.36000 451.000
9.38000 423.000
9.40000 430.000
9.42000 416.000
9.44000 406.000
9.46000 416.000
9.48000 393.000
9.50000 422.000
9.52000 432.000
9.54000 424.000
9.56000 408.000
9.58000 430.000
9.60000 422.000
9.62000 389.000
9.64000 413.000
9.66000 442.000
9.68000 391.000
9.70000 409.000
9.72000 395.000
9.74000 424.000
9.76000 382.000
9.78000 464.000
9.80000 392.000
9.82000 388.000
9.84000 424.000
9.86000 432.000
9.88000 420.000
9.90000 411.000
9.92000 427.000
9.94000 409.000
9.96000 435.000
9.98000 426.000
10.00000 438.000
10.02000 406.000
10.04000 434.000
10.06000 355.000
10.08000 369.000
10.10000 427.000
10.12000 398.000
10.14000 383.000
10.16000 388.000
10.18000 355.000
10.20000 415.000
10.22000 387.000
10.24000 353.000
10.26000 389.000
10.28000 370.000
10.30000 372.000
10.32000 403.000
10.34000 377.000
10.36000 351.000
10.38000 378.000
10.40000 359.000
10.42000 350.000
10.44000 363.000
10.46000 352.000
10.48000 353.000
10.50000 347.000
10.52000 367.000
10.54000 360.000
10.56000 310.000
10.58000 364.000
10.60000 342.000
10.62000 367.000
10.64000 342.000
10.66000 361.000
10.68000 352.000
10.70000 318.000
10.72000 325.000
10.74000 380.000
10.76000 346.000
10.78000 337.000
10.80000 364.000
10.82000 341.000
10.84000 333.000
10.86000 343.000
10.88000 352.000
10.90000 328.000
10.92000 360.000
10.94000 356.000
10.96000 389.000
10.98000 334.000
11.00000 359.000
11.02000 344.000
11.04000 333.000
11.06000 322.000
11.08000 348.000
11.10000 366.000
11.12000 354.000
11.14000 355.000
11.16000 347.000
11.18000 376.000
11.20000 292.000
11.22000 333.000
11.24000 342.000
11.26000 325.000
11.28000 330.000
11.30000 343.000
11.32000 311.000
11.34000 314.000
11.36000 344.000
11.38000 352.000
11.40000 323.000
11.42000 326.000
11.44000 320.000
11.46000 316.000
11.48000 341.000
11.50000 332.000
11.52000 339.000
11.54000 346.000
11.56000 387.000
11.58000 334.000
11.60000 362.000
11.62000 325.000
11.64000 355.000
11.66000 331.000
11.68000 339.000
11.70000 347.000
11.72000 314.000
11.74000 335.000
11.76000 353.000
11.78000 344.000
11.80000 317.000
11.82000 335.000
11.84000 308.000
11.86000 326.000
11.88000 347.000
11.90000 304.000
11.92000 330.000
11.94000 334.000
11.96000 334.000
11.98000 351.000
12.00000 304.000
12.02000 321.000
12.04000 327.000
12.06000 328.000
12.08000 290.000
12.10000 343.000
12.12000 318.000
12.14000 325.000
12.16000 334.000
12.18000 338.000
12.20000 328.000
12.22000 360.000
12.24000 314.000
12.26000 308.000
12.28000 301.000
12.30000 299.000
12.32000 274.000
12.34000 308.000
12.36000 327.000
12.38000 295.000
12.40000 305.000
12.42000 316.000
12.44000 346.000
12.46000 308.000
12.48000 349.000
12.50000 321.000
12.52000 319.000
12.54000 341.000
12.56000 320.000
12.58000 316.000
12.60000 308.000
12.62000 297.000
12.64000 296.000
12.66000 313.000
12.68000 346.000
12.70000 321.000
12.72000 366.000
12.74000 310.000
12.76000 312.000
12.78000 335.000
12.80000 313.000
12.82000 342.000
12.84000 328.000
12.86000 287.000
12.88000 355.000
12.90000 329.000
12.92000 345.000
12.94000 335.000
12.96000 351.000
12.98000 364.000
13.00000 391.000
13.02000 309.000
13.04000 358.000
13.06000 361.000
13.08000 373.000
13.10000 407.000
13.12000 372.000
13.14000 403.000
13.16000 401.000
13.18000 422.000
13.20000 421.000
13.22000 460.000
13.24000 466.000
13.26000 513.000
13.28000 490.000
13.30000 510.000
13.32000 598.000
13.34000 550.000
13.36000 599.000
13.38000 544.000
13.40000 582.000
13.42000 609.000
13.44000 615.000
13.46000 688.000
13.48000 650.000
13.50000 677.000
13.52000 665.000
13.54000 733.000
13.56000 778.000
13.58000 839.000
13.60000 795.000
13.62000 900.000
13.64000 928.000
13.66000 1010.000
13.68000 1090.000
13.70000 1132.000
13.72000 1242.000
13.74000 1331.000
13.76000 1397.000
13.78000 1608.000
13.80000 1720.000
13.82000 1876.000
13.84000 2072.000
13.86000 2278.000
13.88000 2540.000
13.90000 2868.000
13.92000 3086.000
13.94000 3461.000
13.96000 3887.000
13.98000 4296.000
14.00000 4935.000
14.02000 5316.000
14.04000 5553.000
14.06000 5601.000
14.08000 5357.000
14.10000 4935.000
14.12000 4122.000
14.14000 3324.000
14.16000 2611.000
14.18000 1983.000
14.20000 1603.000
14.22000 1297.000
14.24000 1036.000
14.26000 858.000
14.28000 705.000
14.30000 612.000
14.32000 521.000
14.34000 464.000
14.36000 423.000
14.38000 396.000
14.40000 390.000
14.42000 362.000
14.44000 330.000
14.46000 361.000
14.48000 327.000
14.50000 311.000
14.52000 300.000
14.54000 320.000
14.56000 271.000
14.58000 305.000
14.60000 301.000
14.62000 299.000
14.64000 289.000
14.66000 267.000
14.68000 268.000
14.70000 303.000
14.72000 282.000
14.74000 275.000
14.76000 272.000
14.78000 260.000
14.80000 285.000
14.82000 281.000
14.84000 293.000
14.86000 280.000
14.88000 292.000
14.90000 278.000
14.92000 246.000
14.94000 261.000
14.96000 279.000
14.98000 259.000
15.00000 261.000
15.02000 268.000
15.04000 231.000
15.06000 249.000
15.08000 269.000
15.10000 275.000
15.12000 271.000
15.14000 223.000
15.16000 252.000
15.18000 249.000
15.20000 235.000
15.22000 244.000
15.24000 243.000
15.26000 254.000
15.28000 256.000
15.30000 288.000
15.32000 287.000
15.34000 252.000
15.36000 255.000
15.38000 262.000
15.40000 250.000
15.42000 259.000
15.44000 242.000
15.46000 230.000
15.48000 261.000
15.50000 262.000
15.52000 243.000
15.54000 252.000
15.56000 232.000
15.58000 277.000
15.60000 246.000
15.62000 257.000
15.64000 231.000
15.66000 283.000
15.68000 244.000
15.70000 231.000
15.72000 248.000
15.74000 261.000
15.76000 226.000
15.78000 244.000
15.80000 237.000
15.82000 251.000
15.84000 256.000
15.86000 248.000
15.88000 238.000
15.90000 257.000
15.92000 244.000
15.94000 230.000
15.96000 244.000
15.98000 247.000
16.00000 252.000
16.02000 256.000
16.04000 218.000
16.06000 239.000
16.08000 237.000
16.10000 215.000
16.12000 228.000
16.14000 232.000
16.16000 265.000
16.18000 229.000
16.20000 214.000
16.22000 233.000
16.24000 234.000
16.26000 242.000
16.28000 235.000
16.30000 229.000
16.32000 233.000
16.34000 262.000
16.36000 249.000
16.38000 234.000
16.40000 251.000
16.42000 251.000
16.44000 259.000
16.46000 216.000
16.48000 242.000
16.50000 223.000
16.52000 219.000
16.54000 230.000
16.56000 237.000
16.58000 260.000
16.60000 222.000
16.62000 243.000
16.64000 218.000
16.66000 261.000
16.68000 228.000
16.70000 197.000
16.72000 238.000
16.74000 256.000
16.76000 250.000
16.78000 215.000
16.80000 255.000
16.82000 237.000
16.84000 221.000
16.86000 233.000
16.88000 210.000
16.90000 236.000
16.92000 232.000
16.94000 242.000
16.96000 238.000
16.98000 230.000
17.00000 232.000
17.02000 261.000
17.04000 257.000
17.06000 242.000
17.08000 234.000
17.10000 256.000
17.12000 234.000
17.14000 235.000
17.16000 235.000
17.18000 258.000
17.20000 245.000
17.22000 268.000
17.24000 249.000
17.26000 258.000
17.28000 273.000
17.30000 246.000
17.32000 244.000
17.34000 253.000
17.36000 244.000
17.38000 242.000
17.40000 250.000
17.42000 234.000
17.44000 218.000
17.46000 229.000
17.48000 245.000
17.50000 274.000
17.52000 262.000
17.54000 246.000
17.56000 224.000
17.58000 259.000
17.60000 220.000
17.62000 237.000
17.64000 261.000
17.66000 219.000
17.68000 207.000
17.70000 247.000
17.72000 222.000
17.74000 234.000
17.76000 228.000
17.78000 241.000
17.80000 246.000
17.82000 234.000
17.84000 262.000
17.86000 222.000
17.88000 243.000
17.90000 265.000
17.92000 254.000
17.94000 245.000
17.96000 242.000
17.98000 229.000
18.00000 245.000
18.02000 250.000
18.04000 231.000
18.06000 219.000
18.08000 224.000
18.10000 223.000
18.12000 219.000
18.14000 200.000
18.16000 258.000
18.18000 213.000
18.20000 210.000
18.22000 224.000
18.24000 230.000
18.26000 254.000
18.28000 205.000
18.30000 243.000
18.32000 244.000
18.34000 203.000
18.36000 211.000
18.38000 231.000
18.40000 248.000
18.42000 233.000
18.44000 231.000
18.46000 220.000
18.48000 218.000
18.50000 236.000
18.52000 192.000
18.54000 229.000
18.56000 200.000
18.58000 214.000
18.60000 225.000
18.62000 212.000
18.64000 235.000
18.66000 225.000
18.68000 214.000
18.70000 212.000
18.72000 228.000
18.74000 214.000
18.76000 245.000
18.78000 226.000
18.80000 220.000
18.82000 224.000
18.84000 226.000
18.86000 237.000
18.88000 232.000
18.90000 234.000
18.92000 229.000
18.94000 247.000
18.96000 242.000
18.98000 240.000
19.00000 244.000
19.02000 242.000
19.04000 223.000
19.06000 265.000
19.08000 245.000
19.10000 248.000
19.12000 244.000
19.14000 254.000
19.16000 234.000
19.18000 233.000
19.20000 263.000
19.22000 237.000
19.24000 260.000
19.26000 232.000
19.28000 222.000
19.30000 228.000
19.32000 278.000
19.34000 229.000
19.36000 252.000
19.38000 231.000
19.40000 260.000
19.42000 237.000
19.44000 243.000
19.46000 255.000
19.48000 267.000
19.50000 247.000
19.52000 278.000
19.54000 284.000
19.56000 285.000
19.58000 306.000
19.60000 313.000
19.62000 295.000
19.64000 331.000
19.66000 337.000
19.68000 368.000
19.70000 388.000
19.72000 371.000
19.74000 457.000
19.76000 451.000
19.78000 478.000
19.80000 564.000
19.82000 597.000
19.84000 632.000
19.86000 720.000
19.88000 770.000
19.90000 811.000
19.92000 864.000
19.94000 925.000
19.96000 830.000
19.98000 830.000
20.00000 739.000
20.02000 641.000
20.04000 507.000
20.06000 412.000
20.08000 403.000
20.10000 330.000
20.12000 355.000
20.14000 305.000
20.16000 260.000
20.18000 255.000
20.20000 262.000
20.22000 270.000
20.24000 233.000
20.26000 259.000
20.28000 231.000
20.30000 230.000
20.32000 249.000
20.34000 235.000
20.36000 237.000
20.38000 211.000
20.40000 249.000
20.42000 228.000
20.44000 235.000
20.46000 241.000
20.48000 232.000
20.50000 215.000
20.52000 233.000
20.54000 233.000
20.56000 217.000
20.58000 226.000
20.60000 236.000
20.62000 232.000
20.64000 227.000
20.66000 238.000
20.68000 212.000
20.70000 251.000
20.72000 231.000
20.74000 226.000
20.76000 200.000
20.78000 247.000
20.80000 215.000
20.82000 205.000
20.84000 225.000
20.86000 235.000
20.88000 247.000
20.90000 231.000
20.92000 236.000
20.94000 218.000
20.96000 285.000
20.98000 261.000
21.00000 247.000
21.02000 234.000
21.04000 277.000
21.06000 251.000
21.08000 246.000
21.10000 292.000
21.12000 259.000
21.14000 264.000
21.16000 276.000
21.18000 263.000
21.20000 277.000
21.22000 262.000
21.24000 277.000
21.26000 276.000
21.28000 271.000
21.30000 249.000
21.32000 251.000
21.34000 226.000
21.36000 241.000
21.38000 276.000
21.40000 240.000
21.42000 252.000
21.44000 216.000
21.46000 224.000
21.48000 220.000
21.50000 244.000
21.52000 242.000
21.54000 210.000
21.56000 229.000
21.58000 255.000
21.60000 237.000
21.62000 240.000
21.64000 229.000
21.66000 221.000
21.68000 236.000
21.70000 204.000
21.72000 235.000
21.74000 249.000
21.76000 261.000
21.78000 250.000
21.80000 242.000
21.82000 242.000
21.84000 243.000
21.86000 262.000
21.88000 256.000
21.90000 267.000
21.92000 243.000
21.94000 243.000
21.96000 261.000
21.98000 247.000
22.00000 274.000
22.02000 268.000
22.04000 269.000
22.06000 282.000
22.08000 245.000
22.10000 240.000
22.12000 271.000
22.14000 252.000
22.16000 285.000
22.18000 253.000
22.20000 254.000
22.22000 252.000
22.24000 252.000
22.26000 226.000
22.28000 234.000
22.30000 231.000
22.32000 247.000
22.34000 239.000
22.36000 253.000
22.38000 242.000
22.40000 264.000
22.42000 238.000
22.44000 232.000
22.46000 223.000
22.48000 238.000
22.50000 230.000
22.52000 257.000
22.54000 255.000
22.56000 236.000
22.58000 260.000
22.60000 249.000
22.62000 258.000
22.64000 229.000
22.66000 250.000
22.68000 262.000
22.70000 239.000
22.72000 234.000
22.74000 232.000
22.76000 228.000
22.78000 242.000
22.80000 263.000
22.82000 219.000
22.84000 273.000
22.86000 261.000
22.88000 257.000
22.90000 261.000
22.92000 234.000
22.94000 284.000
22.96000 277.000
22.98000 266.000
23.00000 260.000
23.02000 274.000
23.04000 270.000
23.06000 300.000
23.08000 273.000
23.10000 260.000
23.12000 253.000
23.14000 249.000
23.16000 255.000
23.18000 272.000
23.20000 260.000
23.22000 269.000
23.24000 233.000
23.26000 258.000
23.28000 264.000
23.30000 243.000
23.32000 260.000
23.34000 267.000
23.36000 257.000
23.38000 252.000
23.40000 237.000
23.42000 237.000
23.44000 260.000
23.46000 254.000
23.48000 253.000
23.50000 239.000
23.52000 267.000
23.54000 258.000
23.56000 236.000
23.58000 262.000
23.60000 238.000
23.62000 237.000
23.64000 256.000
23.66000 267.000
23.68000 264.000
23.70000 227.000
23.72000 239.000
23.74000 238.000
23.76000 233.000
23.78000 252.000
23.80000 242.000
23.82000 223.000
23.84000 245.000
23.86000 269.000
23.88000 233.000
23.90000 246.000
23.92000 253.000
23.94000 258.000
23.96000 247.000
23.98000 278.000
24.00000 256.000
24.02000 259.000
24.04000 293.000
24.06000 282.000
24.08000 276.000
24.10000 304.000
24.12000 284.000
24.14000 334.000
24.16000 326.000
24.18000 366.000
24.20000 358.000
24.22000 358.000
24.24000 419.000
24.26000 443.000
24.28000 488.000
24.30000 485.000
24.32000 597.000
24.34000 637.000
24.36000 724.000
24.38000 764.000
24.40000 856.000
24.42000 970.000
24.44000 1035.000
24.46000 1093.000
24.48000 1152.000
24.50000 976.000
24.52000 896.000
24.54000 939.000
24.56000 754.000
24.58000 636.000
24.60000 612.000
24.62000 520.000
24.64000 415.000
24.66000 429.000
24.68000 378.000
24.70000 321.000
24.72000 301.000
24.74000 317.000
24.76000 277.000
24.78000 280.000
24.80000 255.000
24.82000 243.000
24.84000 283.000
24.86000 298.000
24.88000 258.000
24.90000 254.000
24.92000 284.000
24.94000 252.000
24.96000 281.000
24.98000 243.000
25.00000 250.000
25.02000 261.000
25.04000 261.000
25.06000 272.000
25.08000 252.000
25.10000 252.000
25.12000 251.000
25.14000 266.000
25.16000 255.000
25.18000 245.000
25.20000 251.000
25.22000 276.000
25.24000 249.000
25.26000 277.000
25.28000 262.000
25.30000 273.000
25.32000 284.000
25.34000 277.000
25.36000 302.000
25.38000 270.000
25.40000 308.000
25.42000 260.000
25.44000 327.000
25.46000 315.000
25.48000 322.000
25.50000 325.000
25.52000 357.000
25.54000 361.000
25.56000 407.000
25.58000 366.000
25.60000 425.000
25.62000 391.000
25.64000 406.000
25.66000 428.000
25.68000 433.000
25.70000 376.000
25.72000 379.000
25.74000 399.000
25.76000 338.000
25.78000 336.000
25.80000 286.000
25.82000 308.000
25.84000 310.000
25.86000 311.000
25.88000 313.000
25.90000 314.000
25.92000 320.000
25.94000 297.000
25.96000 338.000
25.98000 332.000
26.00000 343.000
26.02000 274.000
26.04000 313.000
26.06000 273.000
26.08000 287.000
26.10000 293.000
26.12000 287.000
26.14000 311.000
26.16000 296.000
26.18000 287.000
26.20000 279.000
26.22000 273.000
26.24000 257.000
26.26000 259.000
26.28000 242.000
26.30000 274.000
26.32000 274.000
26.34000 267.000
26.36000 271.000
26.38000 296.000
26.40000 259.000
26.42000 297.000
26.44000 277.000
26.46000 269.000
26.48000 271.000
26.50000 263.000
26.52000 283.000
26.54000 308.000
26.56000 322.000
26.58000 312.000
26.60000 297.000
26.62000 353.000
26.64000 360.000
26.66000 328.000
26.68000 335.000
26.70000 363.000
26.72000 363.000
26.74000 359.000
26.76000 366.000
26.78000 371.000
26.80000 403.000
26.82000 375.000
26.84000 390.000
26.86000 391.000
26.88000 423.000
26.90000 396.000
26.92000 425.000
26.94000 362.000
26.96000 407.000
26.98000 416.000
27.00000 346.000
27.02000 374.000
27.04000 348.000
27.06000 348.000
27.08000 362.000
27.10000 368.000
27.12000 360.000
27.14000 354.000
27.16000 353.000
27.18000 329.000
27.20000 319.000
27.22000 364.000
27.24000 354.000
27.26000 408.000
27.28000 399.000
27.30000 391.000
27.32000 438.000
27.34000 446.000
27.36000 443.000
27.38000 460.000
27.40000 506.000
27.42000 497.000
27.44000 528.000
27.46000 552.000
27.48000 533.000
27.50000 499.000
27.52000 507.000
27.54000 478.000
27.56000 457.000
27.58000 419.000
27.60000 395.000
27.62000 382.000
27.64000 370.000
27.66000 343.000
27.68000 347.000
27.70000 335.000
27.72000 380.000
27.74000 345.000
27.76000 351.000
27.78000 326.000
27.80000 379.000
27.82000 360.000
27.84000 400.000
27.86000 389.000
27.88000 391.000
27.90000 389.000
27.92000 506.000
27.94000 519.000
27.96000 576.000
27.98000 572.000
28.00000 674.000
28.02000 735.000
28.04000 768.000
28.06000 882.000
28.08000 1017.000
28.10000 1156.000
28.12000 1321.000
28.14000 1568.000
28.16000 1741.000
28.18000 1997.000
28.20000 2374.000
28.22000 2780.000
28.24000 3242.000
28.26000 3546.000
28.28000 4035.000
28.30000 4290.000
28.32000 4358.000
28.34000 4256.000
28.36000 4251.000
28.38000 3888.000
28.40000 3260.000
28.42000 2870.000
28.44000 2332.000
28.46000 1829.000
28.48000 1527.000
28.50000 1166.000
28.52000 1037.000
28.54000 869.000
28.56000 803.000
28.58000 616.000
28.60000 546.000
28.62000 466.000
28.64000 446.000
28.66000 410.000
28.68000 349.000
28.70000 354.000
28.72000 344.000
28.74000 321.000
28.76000 364.000
28.78000 347.000
28.80000 313.000
28.82000 330.000
28.84000 291.000
28.86000 286.000
28.88000 270.000
28.90000 269.000
28.92000 281.000
28.94000 279.000
28.96000 251.000
28.98000 247.000
29.00000 255.000
29.02000 233.000
29.04000 255.000
29.06000 265.000
29.08000 241.000
29.10000 272.000
29.12000 252.000
29.14000 283.000
29.16000 267.000
29.18000 281.000
29.20000 254.000
29.22000 239.000
29.24000 263.000
29.26000 271.000
29.28000 302.000
29.30000 225.000
29.32000 240.000
29.34000 242.000
29.36000 264.000
29.38000 248.000
29.40000 253.000
29.42000 225.000
29.44000 295.000
29.46000 251.000
29.48000 241.000
29.50000 251.000
29.52000 249.000
29.54000 235.000
29.56000 257.000
29.58000 243.000
29.60000 241.000
29.62000 259.000
29.64000 259.000
29.66000 252.000
29.68000 260.000
29.70000 234.000
29.72000 217.000
29.74000 261.000
29.76000 258.000
29.78000 263.000
29.80000 269.000
29.82000 252.000
29.84000 264.000
29.86000 253.000
29.88000 228.000
29.90000 262.000
29.92000 233.000
29.94000 254.000
29.96000 249.000
29.98000 248.000
30.00000 232.000
30.02000 241.000
30.04000 231.000
30.06000 210.000
30.08000 228.000
30.10000 220.000
30.12000 262.000
30.14000 238.000
30.16000 249.000
30.18000 261.000
30.20000 226.000
30.22000 261.000
30.24000 243.000
30.26000 246.000
30.28000 272.000
30.30000 236.000
30.32000 280.000
30.34000 247.000
30.36000 284.000
30.38000 255.000
30.40000 258.000
30.42000 276.000
30.44000 259.000
30.46000 243.000
30.48000 267.000
30.50000 258.000
30.52000 272.000
30.54000 229.000
30.56000 257.000
30.58000 257.000
30.60000 275.000
30.62000 236.000
30.64000 223.000
30.66000 270.000
30.68000 268.000
30.70000 246.000
30.72000 243.000
30.74000 238.000
30.76000 246.000
30.78000 247.000
30.80000 255.000
30.82000 254.000
30.84000 257.000
30.86000 259.000
30.88000 231.000
30.90000 245.000
30.92000 247.000
30.94000 238.000
30.96000 234.000
30.98000 262.000
31.00000 248.000
31.02000 242.000
31.04000 270.000
31.06000 262.000
31.08000 256.000
31.10000 259.000
31.12000 241.000
31.14000 250.000
31.16000 304.000
31.18000 251.000
31.20000 291.000
31.22000 272.000
31.24000 271.000
31.26000 280.000
31.28000 305.000
31.30000 300.000
31.32000 309.000
31.34000 330.000
31.36000 362.000
31.38000 374.000
31.40000 401.000
31.42000 467.000
31.44000 507.000
31.46000 544.000
31.48000 650.000
31.50000 698.000
31.52000 811.000
31.54000 941.000
31.56000 1102.000
31.58000 1315.000
31.60000 1450.000
31.62000 1700.000
31.64000 2025.000
31.66000 2393.000
31.68000 2758.000
31.70000 2996.000
31.72000 3429.000
31.74000 3461.000
31.76000 3511.000
31.78000 3396.000
31.80000 3011.000
31.82000 2747.000
31.84000 2425.000
31.86000 2029.000
31.88000 1640.000
31.90000 1443.000
31.92000 1110.000
31.94000 945.000
31.96000 732.000
31.98000 639.000
32.00000 540.000
32.02000 492.000
32.04000 400.000
32.06000 368.000
32.08000 338.000
32.10000 342.000
32.12000 286.000
32.14000 280.000
32.16000 294.000
32.18000 254.000
32.20000 246.000
32.22000 220.000
32.24000 237.000
32.26000 247.000
32.28000 224.000
32.30000 203.000
32.32000 219.000
32.34000 231.000
32.36000 256.000
32.38000 243.000
32.40000 211.000
32.42000 204.000
32.44000 230.000
32.46000 226.000
32.48000 216.000
32.50000 221.000
32.52000 238.000
32.54000 191.000
32.56000 199.000
32.58000 207.000
32.60000 180.000
32.62000 204.000
32.64000 210.000
32.66000 214.000
32.68000 218.000
32.70000 202.000
32.72000 196.000
32.74000 200.000
32.76000 207.000
32.78000 193.000
32.80000 160.000
32.82000 205.000
32.84000 194.000
32.86000 214.000
32.88000 209.000
32.90000 219.000
32.92000 195.000
32.94000 204.000
32.96000 178.000
32.98000 215.000
33.00000 205.000
33.02000 201.000
33.04000 197.000
33.06000 192.000
33.08000 192.000
33.10000 189.000
33.12000 188.000
33.14000 204.000
33.16000 215.000
33.18000 195.000
33.20000 211.000
33.22000 196.000
33.24000 199.000
33.26000 182.000
33.28000 192.000
33.30000 184.000
33.32000 208.000
33.34000 190.000
33.36000 176.000
33.38000 216.000
33.40000 209.000
33.42000 216.000
33.44000 226.000
33.46000 219.000
33.48000 206.000
33.50000 189.000
33.52000 191.000
33.54000 196.000
33.56000 199.000
33.58000 205.000
33.60000 180.000
33.62000 182.000
33.64000 199.000
33.66000 185.000
33.68000 201.000
33.70000 181.000
33.72000 195.000
33.74000 240.000
33.76000 207.000
33.78000 195.000
33.80000 170.000
33.82000 187.000
33.84000 206.000
33.86000 192.000
33.88000 198.000
33.90000 182.000
33.92000 187.000
33.94000 216.000
33.96000 184.000
33.98000 169.000
34.00000 178.000
34.02000 179.000
34.04000 206.000
34.06000 171.000
34.08000 193.000
34.10000 197.000
34.12000 187.000
34.14000 199.000
34.16000 178.000
34.18000 210.000
34.20000 191.000
34.22000 207.000
34.24000 195.000
34.26000 175.000
34.28000 201.000
34.30000 186.000
34.32000 206.000
34.34000 161.000
34.36000 198.000
34.38000 199.000
34.40000 206.000
34.42000 177.000
34.44000 197.000
34.46000 193.000
34.48000 196.000
34.50000 193.000
34.52000 213.000
34.54000 173.000
34.56000 188.000
34.58000 206.000
34.60000 230.000
34.62000 218.000
34.64000 244.000
34.66000 232.000
34.68000 310.000
34.70000 292.000
34.72000 303.000
34.74000 379.000
34.76000 370.000
34.78000 417.000
34.80000 464.000
34.82000 479.000
34.84000 526.000
34.86000 603.000
34.88000 575.000
34.90000 556.000
34.92000 556.000
34.94000 498.000
34.96000 430.000
34.98000 425.000
35.00000 386.000
35.02000 354.000
35.04000 334.000
35.06000 265.000
35.08000 254.000
35.10000 267.000
35.12000 211.000
35.14000 227.000
35.16000 221.000
35.18000 203.000
35.20000 195.000
35.22000 169.000
35.24000 178.000
35.26000 201.000
35.28000 167.000
35.30000 174.000
35.32000 154.000
35.34000 169.000
35.36000 173.000
35.38000 185.000
35.40000 181.000
35.42000 165.000
35.44000 162.000
35.46000 184.000
35.48000 181.000
35.50000 177.000
35.52000 172.000
35.54000 181.000
35.56000 164.000
35.58000 182.000
35.60000 175.000
35.62000 180.000
35.64000 177.000
35.66000 172.000
35.68000 164.000
35.70000 166.000
35.72000 165.000
35.74000 140.000
35.76000 171.000
35.78000 168.000
35.80000 156.000
35.82000 176.000
35.84000 183.000
35.86000 163.000
35.88000 154.000
35.90000 172.000
35.92000 164.000
35.94000 162.000
35.96000 185.000
35.98000 168.000
36.00000 161.000
36.02000 171.000
36.04000 166.000
36.06000 157.000
36.08000 141.000
36.10000 159.000
36.12000 189.000
36.14000 172.000
36.16000 167.000
36.18000 137.000
36.20000 178.000
36.22000 164.000
36.24000 207.000
36.26000 163.000
36.28000 161.000
36.30000 160.000
36.32000 180.000
36.34000 191.000
36.36000 185.000
36.38000 192.000
36.40000 193.000
36.42000 197.000
36.44000 178.000
36.46000 209.000
36.48000 165.000
36.50000 193.000
36.52000 166.000
36.54000 187.000
36.56000 196.000
36.58000 161.000
36.60000 167.000
36.62000 194.000
36.64000 200.000
36.66000 179.000
36.68000 187.000
36.70000 208.000
36.72000 189.000
36.74000 184.000
36.76000 159.000
36.78000 169.000
36.80000 159.000
36.82000 147.000
36.84000 165.000
36.86000 165.000
36.88000 178.000
36.90000 190.000
36.92000 167.000
36.94000 157.000
36.96000 167.000
36.98000 167.000
37.00000 186.000
37.02000 213.000
37.04000 185.000
37.06000 185.000
37.08000 166.000
37.10000 148.000
37.12000 160.000
37.14000 171.000
37.16000 177.000
37.18000 173.000
37.20000 145.000
37.22000 168.000
37.24000 182.000
37.26000 168.000
37.28000 169.000
37.30000 189.000
37.32000 185.000
37.34000 152.000
37.36000 166.000
37.38000 179.000
37.40000 158.000
37.42000 170.000
37.44000 179.000
37.46000 145.000
37.48000 180.000
37.50000 179.000
37.52000 175.000
37.54000 162.000
37.56000 158.000
37.58000 152.000
37.60000 162.000
37.62000 164.000
37.64000 160.000
37.66000 170.000
37.68000 154.000
37.70000 164.000
37.72000 173.000
37.74000 176.000
37.76000 171.000
37.78000 148.000
37.80000 172.000
37.82000 171.000
37.84000 169.000
37.86000 180.000
37.88000 164.000
37.90000 171.000
37.92000 172.000
37.94000 179.000
37.96000 187.000
37.98000 175.000
38.00000 156.000
38.02000 167.000
38.04000 187.000
38.06000 171.000
38.08000 213.000
38.10000 225.000
38.12000 184.000
38.14000 210.000
38.16000 217.000
38.18000 194.000
38.20000 206.000
38.22000 236.000
38.24000 223.000
38.26000 206.000
38.28000 227.000
38.30000 214.000
38.32000 182.000
38.34000 195.000
38.36000 206.000
38.38000 189.000
38.40000 230.000
38.42000 191.000
38.44000 185.000
38.46000 169.000
38.48000 164.000
38.50000 154.000
38.52000 203.000
38.54000 183.000
38.56000 198.000
38.58000 185.000
38.60000 198.000
38.62000 183.000
38.64000 192.000
38.66000 179.000
38.68000 165.000
38.70000 207.000
38.72000 173.000
38.74000 193.000
38.76000 180.000
38.78000 189.000
38.80000 158.000
38.82000 176.000
38.84000 185.000
38.86000 165.000
38.88000 169.000
38.90000 144.000
38.92000 212.000
38.94000 175.000
38.96000 163.000
38.98000 156.000
39.00000 178.000
39.02000 158.000
39.04000 182.000
39.06000 175.000
39.08000 163.000
39.10000 159.000
39.12000 178.000
39.14000 162.000
39.16000 187.000
39.18000 186.000
39.20000 172.000
39.22000 177.000
39.24000 175.000
39.26000 177.000
39.28000 157.000
39.30000 183.000
39.32000 157.000
39.34000 188.000
39.36000 160.000
39.38000 165.000
39.40000 175.000
39.42000 159.000
39.44000 175.000
39.46000 168.000
39.48000 161.000
39.50000 163.000
39.52000 179.000
39.54000 180.000
39.56000 176.000
39.58000 175.000
39.60000 175.000
39.62000 160.000
39.64000 188.000
39.66000 186.000
39.68000 150.000
39.70000 209.000
39.72000 174.000
39.74000 188.000
39.76000 220.000
39.78000 171.000
39.80000 203.000
39.82000 178.000
39.84000 164.000
39.86000 166.000
39.88000 175.000
39.90000 175.000
39.92000 212.000
39.94000 213.000
39.96000 191.000
39.98000 197.000
40.00000 214.000
40.02000 209.000
40.04000 222.000
40.06000 204.000
40.08000 231.000
40.10000 221.000
40.12000 270.000
40.14000 261.000
40.16000 272.000
40.18000 322.000
40.20000 353.000
40.22000 374.000
40.24000 407.000
40.26000 445.000
40.28000 548.000
40.30000 617.000
40.32000 714.000
40.34000 749.000
40.36000 926.000
40.38000 1131.000
40.40000 1197.000
40.42000 1364.000
40.44000 1600.000
40.46000 1640.000
40.48000 1809.000
40.50000 1821.000
40.52000 1719.000
40.54000 1703.000
40.56000 1462.000
40.58000 1371.000
40.60000 1221.000
40.62000 1029.000
40.64000 888.000
40.66000 781.000
40.68000 643.000
40.70000 527.000
40.72000 451.000
40.74000 399.000
40.76000 378.000
40.78000 343.000
40.80000 296.000
40.82000 255.000
40.84000 273.000
40.86000 224.000
40.88000 248.000
40.90000 224.000
40.92000 239.000
40.94000 219.000
40.96000 209.000
40.98000 222.000
41.00000 212.000
41.02000 205.000
41.04000 205.000
41.06000 220.000
41.08000 224.000
41.10000 228.000
41.12000 244.000
41.14000 215.000
41.16000 201.000
41.18000 217.000
41.20000 205.000
41.22000 228.000
41.24000 198.000
41.26000 190.000
41.28000 200.000
41.30000 179.000
41.32000 212.000
41.34000 193.000
41.36000 187.000
41.38000 199.000
41.40000 202.000
41.42000 177.000
41.44000 189.000
41.46000 194.000
41.48000 191.000
41.50000 192.000
41.52000 175.000
41.54000 230.000
41.56000 229.000
41.58000 203.000
41.60000 215.000
41.62000 220.000
41.64000 188.000
41.66000 226.000
41.68000 226.000
41.70000 242.000
41.72000 237.000
41.74000 216.000
41.76000 211.000
41.78000 230.000
41.80000 196.000
41.82000 216.000
41.84000 210.000
41.86000 192.000
41.88000 221.000
41.90000 196.000
41.92000 190.000
41.94000 183.000
41.96000 210.000
41.98000 200.000
42.00000 189.000
42.02000 203.000
42.04000 199.000
42.06000 185.000
42.08000 193.000
42.10000 214.000
42.12000 183.000
42.14000 178.000
42.16000 186.000
42.18000 195.000
42.20000 199.000
42.22000 171.000
42.24000 173.000
42.26000 159.000
42.28000 159.000
42.30000 173.000
42.32000 201.000
42.34000 164.000
42.36000 193.000
42.38000 161.000
42.40000 190.000
42.42000 168.000
42.44000 230.000
42.46000 177.000
42.48000 179.000
42.50000 199.000
42.52000 174.000
42.54000 187.000
42.56000 160.000
42.58000 218.000
42.60000 195.000
42.62000 188.000
42.64000 187.000
42.66000 174.000
42.68000 223.000
42.70000 227.000
42.72000 215.000
42.74000 252.000
42.76000 267.000
42.78000 271.000
42.80000 335.000
42.82000 343.000
42.84000 380.000
42.86000 420.000
42.88000 517.000
42.90000 573.000
42.92000 682.000
42.94000 743.000
42.96000 886.000
42.98000 1053.000
43.00000 1175.000
43.02000 1317.000
43.04000 1411.000
43.06000 1351.000
43.08000 1347.000
43.10000 1280.000
43.12000 1229.000
43.14000 1090.000
43.16000 1029.000
43.18000 921.000
43.20000 830.000
43.22000 763.000
43.24000 639.000
43.26000 538.000
43.28000 436.000
43.30000 425.000
43.32000 301.000
43.34000 314.000
43.36000 275.000
43.38000 240.000
43.40000 238.000
43.42000 219.000
43.44000 231.000
43.46000 221.000
43.48000 170.000
43.50000 217.000
43.52000 202.000
43.54000 208.000
43.56000 202.000
43.58000 171.000
43.60000 178.000
43.62000 187.000
43.64000 167.000
43.66000 161.000
43.68000 146.000
43.70000 175.000
43.72000 177.000
43.74000 167.000
43.76000 155.000
43.78000 158.000
43.80000 170.000
43.82000 162.000
43.84000 178.000
43.86000 151.000
43.88000 152.000
43.90000 171.000
43.92000 161.000
43.94000 198.000
43.96000 157.000
43.98000 187.000
44.00000 147.000
44.02000 181.000
44.04000 173.000
44.06000 170.000
44.08000 164.000
44.10000 158.000
44.12000 163.000
44.14000 175.000
44.16000 150.000
44.18000 160.000
44.20000 170.000
44.22000 155.000
44.24000 156.000
44.26000 146.000
44.28000 158.000
44.30000 185.000
44.32000 158.000
44.34000 152.000
44.36000 165.000
44.38000 148.000
44.40000 157.000
44.42000 160.000
44.44000 170.000
44.46000 166.000
44.48000 171.000
44.50000 141.000
44.52000 139.000
44.54000 156.000
44.56000 153.000
44.58000 183.000
44.60000 149.000
44.62000 134.000
44.64000 160.000
44.66000 155.000
44.68000 169.000
44.70000 145.000
44.72000 140.000
44.74000 166.000
44.76000 160.000
44.78000 160.000
44.80000 165.000
44.82000 159.000
44.84000 156.000
44.86000 144.000
44.88000 161.000
44.90000 164.000
44.92000 145.000
44.94000 151.000
44.96000 171.000
44.98000 160.000
45.00000 148.000
45.02000 159.000
45.04000 145.000
45.06000 168.000
45.08000 160.000
45.10000 171.000
45.12000 155.000
45.14000 146.000
45.16000 164.000
45.18000 172.000
45.20000 162.000
45.22000 156.000
45.24000 148.000
45.26000 191.000
45.28000 176.000
45.30000 182.000
45.32000 165.000
45.34000 166.000
45.36000 159.000
45.38000 154.000
45.40000 161.000
45.42000 190.000
45.44000 196.000
45.46000 189.000
45.48000 183.000
45.50000 201.000
45.52000 197.000
45.54000 174.000
45.56000 200.000
45.58000 161.000
45.60000 183.000
45.62000 185.000
45.64000 141.000
45.66000 170.000
45.68000 178.000
45.70000 186.000
45.72000 156.000
45.74000 164.000
45.76000 155.000
45.78000 143.000
45.80000 168.000
45.82000 137.000
45.84000 169.000
45.86000 134.000
45.88000 135.000
45.90000 131.000
45.92000 141.000
45.94000 147.000
45.96000 142.000
45.98000 133.000
46.00000 137.000
46.02000 136.000
46.04000 146.000
46.06000 134.000
46.08000 147.000
46.10000 130.000
46.12000 149.000
46.14000 132.000
46.16000 127.000
46.18000 130.000
46.20000 140.000
46.22000 142.000
46.24000 126.000
46.26000 130.000
46.28000 141.000
46.30000 146.000
46.32000 147.000
46.34000 142.000
46.36000 137.000
46.38000 139.000
46.40000 149.000
46.42000 141.000
46.44000 136.000
46.46000 133.000
46.48000 155.000
46.50000 123.000
46.52000 146.000
46.54000 150.000
46.56000 150.000
46.58000 123.000
46.60000 161.000
46.62000 123.000
46.64000 154.000
46.66000 137.000
46.68000 149.000
46.70000 160.000
46.72000 140.000
46.74000 156.000
46.76000 151.000
46.78000 151.000
46.80000 150.000
46.82000 147.000
46.84000 164.000
46.86000 149.000
46.88000 152.000
46.90000 162.000
46.92000 157.000
46.94000 165.000
46.96000 155.000
46.98000 178.000
47.00000 164.000
47.02000 182.000
47.04000 156.000
47.06000 146.000
47.08000 144.000
47.10000 133.000
47.12000 127.000
47.14000 144.000
47.16000 122.000
47.18000 139.000
47.20000 133.000
47.22000 140.000
47.24000 145.000
47.26000 143.000
47.28000 121.000
47.30000 146.000
47.32000 131.000
47.34000 146.000
47.36000 131.000
47.38000 124.000
47.40000 135.000
47.42000 134.000
47.44000 112.000
47.46000 146.000
47.48000 151.000
47.50000 135.000
47.52000 161.000
47.54000 133.000
47.56000 121.000
47.58000 140.000
47.60000 130.000
47.62000 132.000
47.64000 132.000
47.66000 139.000
47.68000 157.000
47.70000 150.000
47.72000 172.000
47.74000 134.000
47.76000 162.000
47.78000 179.000
47.80000 165.000
47.82000 174.000
47.84000 164.000
47.86000 168.000
47.88000 183.000
47.90000 171.000
47.92000 171.000
47.94000 173.000
47.96000 166.000
47.98000 163.000
48.00000 161.000
48.02000 136.000
48.04000 153.000
48.06000 162.000
48.08000 156.000
48.10000 150.000
48.12000 134.000
48.14000 128.000
48.16000 127.000
48.18000 122.000
48.20000 160.000
48.22000 125.000
48.24000 136.000
48.26000 141.000
48.28000 142.000
48.30000 137.000
48.32000 126.000
48.34000 143.000
48.36000 127.000
48.38000 127.000
48.40000 130.000
48.42000 133.000
48.44000 99.000
48.46000 130.000
48.48000 139.000
48.50000 127.000
48.52000 129.000
48.54000 110.000
48.56000 137.000
48.58000 133.000
48.60000 141.000
48.62000 121.000
48.64000 129.000
48.66000 132.000
48.68000 124.000
48.70000 127.000
48.72000 130.000
48.74000 132.000
48.76000 122.000
48.78000 134.000
48.80000 146.000
48.82000 130.000
48.84000 138.000
48.86000 140.000
48.88000 116.000
48.90000 132.000
48.92000 116.000
48.94000 122.000
48.96000 129.000
48.98000 136.000
49.00000 124.000
49.02000 150.000
49.04000 106.000
49.06000 124.000
49.08000 121.000
49.10000 154.000
49.12000 140.000
49.14000 132.000
49.16000 137.000
49.18000 133.000
49.20000 124.000
49.22000 136.000
49.24000 130.000
49.26000 161.000
49.28000 136.000
49.30000 120.000
49.32000 121.000
49.34000 143.000
49.36000 149.000
49.38000 123.000
49.40000 140.000
49.42000 133.000
49.44000 144.000
49.46000 125.000
49.48000 123.000
49.50000 140.000
49.52000 117.000
49.54000 116.000
49.56000 143.000
49.58000 143.000
49.60000 130.000
49.62000 119.000
49.64000 123.000
49.66000 131.000
49.68000 134.000
49.70000 115.000
49.72000 119.000
49.74000 140.000
49.76000 147.000
49.78000 140.000
49.80000 132.000
49.82000 154.000
49.84000 152.000
49.86000 146.000
49.88000 146.000
49.90000 168.000
49.92000 205.000
49.94000 201.000
49.96000 207.000
49.98000 246.000
50.00000 255.000
50.02000 284.000
50.04000 355.000
50.06000 397.000
50.08000 421.000
50.10000 423.000
50.12000 467.000
50.14000 532.000
50.16000 493.000
50.18000 488.000
50.20000 447.000
50.22000 459.000
50.24000 422.000
50.26000 370.000
50.28000 345.000
50.30000 328.000
50.32000 302.000
50.34000 275.000
50.36000 255.000
50.38000 197.000
50.40000 206.000
50.42000 169.000
50.44000 177.000
50.46000 188.000
50.48000 150.000
50.50000 154.000
50.52000 136.000
50.54000 131.000
50.56000 140.000
50.58000 145.000
50.60000 130.000
50.62000 130.000
50.64000 127.000
50.66000 123.000
50.68000 121.000
50.70000 146.000
50.72000 109.000
50.74000 119.000
50.76000 130.000
50.78000 130.000
50.80000 117.000
50.82000 142.000
50.84000 131.000
50.86000 131.000
50.88000 147.000
50.90000 135.000
50.92000 139.000
50.94000 134.000
50.96000 116.000
50.98000 136.000
51.00000 136.000
51.02000 124.000
51.04000 139.000
51.06000 137.000
51.08000 108.000
51.10000 127.000
51.12000 123.000
51.14000 118.000
51.16000 113.000
51.18000 131.000
51.20000 136.000
51.22000 118.000
51.24000 127.000
51.26000 107.000
51.28000 117.000
51.30000 126.000
51.32000 124.000
51.34000 128.000
51.36000 128.000
51.38000 125.000
51.40000 145.000
51.42000 124.000
51.44000 131.000
51.46000 128.000
51.48000 131.000
51.50000 148.000
51.52000 129.000
51.54000 99.000
51.56000 129.000
51.58000 157.000
51.60000 115.000
51.62000 141.000
51.64000 109.000
51.66000 111.000
51.68000 122.000
51.70000 132.000
51.72000 138.000
51.74000 118.000
51.76000 133.000
51.78000 116.000
51.80000 139.000
51.82000 145.000
51.84000 126.000
51.86000 121.000
51.88000 126.000
51.90000 104.000
51.92000 125.000
51.94000 132.000
51.96000 134.000
51.98000 121.000
52.00000 130.000
52.02000 126.000
52.04000 138.000
52.06000 141.000
52.08000 168.000
52.10000 155.000
52.12000 152.000
52.14000 179.000
52.16000 203.000
52.18000 208.000
52.20000 231.000
52.22000 279.000
52.24000 304.000
52.26000 306.000
52.28000 350.000
52.30000 331.000
52.32000 375.000
52.34000 342.000
52.36000 388.000
52.38000 361.000
52.40000 345.000
52.42000 351.000
52.44000 282.000
52.46000 291.000
52.48000 275.000
52.50000 246.000
52.52000 225.000
52.54000 210.000
52.56000 200.000
52.58000 192.000
52.60000 183.000
52.62000 191.000
52.64000 177.000
52.66000 130.000
52.68000 135.000
52.70000 155.000
52.72000 111.000
52.74000 128.000
52.76000 140.000
52.78000 120.000
52.80000 142.000
52.82000 119.000
52.84000 107.000
52.86000 125.000
52.88000 137.000
52.90000 97.000
52.92000 122.000
52.94000 96.000
52.96000 122.000
52.98000 114.000
53.00000 125.000
53.02000 102.000
53.04000 130.000
53.06000 117.000
53.08000 118.000
53.10000 104.000
53.12000 127.000
53.14000 125.000
53.16000 96.000
53.18000 102.000
53.20000 109.000
53.22000 114.000
53.24000 105.000
53.26000 113.000
53.28000 130.000
53.30000 101.000
53.32000 104.000
53.34000 115.000
53.36000 115.000
53.38000 99.000
53.40000 132.000
53.42000 123.000
53.44000 103.000
53.46000 97.000
53.48000 111.000
53.50000 141.000
53.52000 115.000
53.54000 121.000
53.56000 94.000
53.58000 97.000
53.60000 104.000
53.62000 118.000
53.64000 129.000
53.66000 118.000
53.68000 139.000
53.70000 110.000
53.72000 121.000
53.74000 112.000
53.76000 93.000
53.78000 99.000
53.80000 94.000
53.82000 109.000
53.84000 109.000
53.86000 108.000
53.88000 119.000
53.90000 127.000
53.92000 94.000
53.94000 91.000
53.96000 119.000
53.98000 103.000
54.00000 108.000
54.02000 121.000
54.04000 110.000
54.06000 114.000
54.08000 102.000
54.10000 117.000
54.12000 120.000
54.14000 129.000
54.16000 127.000
54.18000 122.000
54.20000 101.000
54.22000 119.000
54.24000 111.000
54.26000 128.000
54.28000 140.000
54.30000 125.000
54.32000 149.000
54.34000 152.000
54.36000 157.000
54.38000 182.000
54.40000 169.000
54.42000 156.000
54.44000 212.000
54.46000 201.000
54.48000 191.000
54.50000 165.000
54.52000 210.000
54.54000 197.000
54.56000 182.000
54.58000 156.000
54.60000 148.000
54.62000 159.000
54.64000 142.000
54.66000 157.000
54.68000 149.000
54.70000 136.000
54.72000 122.000
54.74000 121.000
54.76000 107.000
54.78000 119.000
54.80000 121.000
54.82000 134.000
54.84000 122.000
54.86000 109.000
54.88000 109.000
54.90000 100.000
54.92000 111.000
54.94000 121.000
54.96000 88.000
54.98000 116.000
55.00000 107.000
55.02000 111.000
55.04000 94.000
55.06000 84.000
55.08000 113.000
55.10000 114.000
55.12000 99.000
55.14000 114.000
55.16000 107.000
55.18000 102.000
55.20000 94.000
55.22000 94.000
55.24000 95.000
55.26000 119.000
55.28000 94.000
55.30000 106.000
55.32000 99.000
55.34000 111.000
55.36000 101.000
55.38000 107.000
55.40000 100.000
55.42000 81.000
55.44000 93.000
55.46000 105.000
55.48000 108.000
55.50000 97.000
55.52000 87.000
55.54000 107.000
55.56000 90.000
55.58000 101.000
55.60000 88.000
55.62000 92.000
55.64000 82.000
55.66000 83.000
55.68000 103.000
55.70000 117.000
55.72000 85.000
55.74000 93.000
55.76000 122.000
55.78000 85.000
55.80000 89.000
55.82000 84.000
55.84000 96.000
55.86000 97.000
55.88000 105.000
55.90000 86.000
55.92000 80.000
55.94000 92.000
55.96000 104.000
55.98000 87.000
56.00000 90.000
56.02000 95.000
56.04000 96.000
56.06000 107.000
56.08000 91.000
56.10000 88.000
56.12000 75.000
56.14000 98.000
56.16000 95.000
56.18000 86.000
56.20000 87.000
56.22000 97.000
56.24000 76.000
56.26000 94.000
56.28000 109.000
56.30000 101.000
56.32000 109.000
56.34000 78.000
56.36000 111.000
56.38000 80.000
56.40000 102.000
56.42000 94.000
56.44000 97.000
56.46000 109.000
56.48000 114.000
56.50000 99.000
56.52000 110.000
56.54000 92.000
56.56000 112.000
56.58000 113.000
56.60000 110.000
56.62000 114.000
56.64000 105.000
56.66000 111.000
56.68000 111.000
56.70000 118.000
56.72000 111.000
56.74000 96.000
56.76000 112.000
56.78000 94.000
56.80000 86.000
56.82000 110.000
56.84000 97.000
56.86000 122.000
56.88000 100.000
56.90000 92.000
56.92000 98.000
56.94000 104.000
56.96000 104.000
56.98000 97.000
57.00000 108.000
57.02000 96.000
57.04000 98.000
57.06000 109.000
57.08000 110.000
57.10000 97.000
57.12000 106.000
57.14000 99.000
57.16000 102.000
57.18000 81.000
57.20000 96.000
57.22000 109.000
57.24000 96.000
57.26000 98.000
57.28000 104.000
57.30000 90.000
57.32000 96.000
57.34000 111.000
57.36000 89.000
57.38000 93.000
57.40000 97.000
57.42000 93.000
57.44000 72.000
57.46000 110.000
57.48000 106.000
57.50000 92.000
57.52000 88.000
57.54000 99.000
57.56000 87.000
57.58000 99.000
57.60000 101.000
57.62000 84.000
57.64000 106.000
57.66000 101.000
57.68000 107.000
57.70000 82.000
57.72000 90.000
57.74000 116.000
57.76000 116.000
57.78000 81.000
57.80000 94.000
57.82000 76.000
57.84000 86.000
57.86000 87.000
57.88000 97.000
57.90000 101.000
57.92000 88.000
57.94000 97.000
57.96000 93.000
57.98000 113.000
58.00000 86.000
58.02000 88.000
58.04000 93.000
58.06000 105.000
58.08000 89.000
58.10000 89.000
58.12000 96.000
58.14000 98.000
58.16000 89.000
58.18000 114.000
58.20000 89.000
58.22000 114.000
58.24000 113.000
58.26000 117.000
58.28000 119.000
58.30000 112.000
58.32000 102.000
58.34000 121.000
58.36000 109.000
58.38000 142.000
58.40000 124.000
58.42000 135.000
58.44000 146.000
58.46000 179.000
58.48000 175.000
58.50000 181.000
58.52000 220.000
58.54000 201.000
58.56000 251.000
58.58000 210.000
58.60000 237.000
58.62000 201.000
58.64000 220.000
58.66000 206.000
58.68000 186.000
58.70000 184.000
58.72000 194.000
58.74000 190.000
58.76000 147.000
58.78000 164.000
58.80000 149.000
58.82000 147.000
58.84000 130.000
58.86000 129.000
58.88000 125.000
58.90000 123.000
58.92000 113.000
58.94000 115.000
58.96000 114.000
58.98000 101.000
59.00000 111.000
59.02000 122.000
59.04000 119.000
59.06000 108.000
59.08000 124.000
59.10000 100.000
59.12000 91.000
59.14000 116.000
59.16000 85.000
59.18000 113.000
59.20000 96.000
59.22000 94.000
59.24000 107.000
59.26000 98.000
59.28000 81.000
59.30000 112.000
59.32000 93.000
59.34000 110.000
59.36000 86.000
59.38000 125.000
59.40000 98.000
59.42000 108.000
59.44000 122.000
59.46000 109.000
59.48000 102.000
59.50000 80.000
59.52000 106.000
59.54000 92.000
59.56000 73.000
59.58000 108.000
59.60000 81.000
59.62000 108.000
59.64000 109.000
59.66000 109.000
59.68000 102.000
59.70000 85.000
59.72000 100.000
59.74000 101.000
59.76000 98.000
59.78000 83.000
59.80000 93.000
59.82000 89.000
59.84000 90.000
59.86000 113.000
59.88000 85.000
59.90000 93.000
59.92000 98.000
59.94000 117.000
59.96000 109.000
