5.00000 801.000
5.02000 800.000
5.04000 770.000
5.06000 785.000
5.08000 784.000
5.10000 770.000
5.12000 726.000
5.14000 813.000
5.16000 736.000
5.18000 801.000
5.20000 798.000
5.22000 800.000
5.24000 761.000
5.26000 753.000
5.28000 766.000
5.30000 808.000
5.32000 811.000
5.34000 766.000
5.36000 761.000
5.38000 790.000
5.40000 780.000
5.42000 766.000
5.44000 803.000
5.46000 736.000
5.48000 748.000
5.50000 782.000
5.52000 724.000
5.54000 718.000
5.56000 739.000
5.58000 709.000
5.60000 717.000
5.62000 701.000
5.64000 705.000
5.66000 685.000
5.68000 661.000
5.70000 723.000
5.72000 725.000
5.74000 752.000
5.76000 672.000
5.78000 654.000
5.80000 680.000
5.82000 675.000
5.84000 705.000
5.86000 655.000
5.88000 643.000
5.90000 643.000
5.92000 676.000
5.94000 732.000
5.96000 665.000
5.98000 665.000
6.00000 702.000
6.02000 669.000
6.04000 670.000
6.06000 668.000
6.08000 685.000
6.10000 680.000
6.12000 700.000
6.14000 645.000
6.16000 679.000
6.18000 678.000
6.20000 686.000
6.22000 625.000
6.24000 609.000
6.26000 669.000
6.28000 634.000
6.30000 643.000
6.32000 634.000
6.34000 640.000
6.36000 628.000
6.38000 637.000
6.40000 580.000
6.42000 637.000
6.44000 619.000
6.46000 617.000
6.48000 628.000
6.50000 609.000
6.52000 626.000
6.54000 595.000
6.56000 651.000
6.58000 584.000
6.60000 610.000
6.62000 574.000
6.64000 577.000
6.66000 628.000
6.68000 576.000
6.70000 563.000
6.72000 643.000
6.74000 596.000
6.76000 630.000
6.78000 554.000
6.80000 605.000
6.82000 574.000
6.84000 583.000
6.86000 600.000
6.88000 576.000
6.90000 602.000
6.92000 570.000
6.94000 578.000
6.96000 555.000
6.98000 532.000
7.00000 526.000
7.02000 576.000
7.04000 575.000
7.06000 529.000
7.08000 568.000
7.10000 548.000
7.12000 563.000
7.14000 538.000
7.16000 545.000
7.18000 549.000
7.20000 588.000
7.22000 567.000
7.24000 557.000
7.26000 545.000
7.28000 531.000
7.30000 585.000
7.32000 564.000
7.34000 560.000
7.36000 529.000
7.38000 543.000
7.40000 564.000
7.42000 563.000
7.44000 526.000
7.46000 506.000
7.48000 574.000
7.50000 522.000
7.52000 517.000
7.54000 522.000
7.56000 542.000
7.58000 513.000
7.60000 549.000
7.62000 517.000
7.64000 534.000
7.66000 506.000
7.68000 472.000
7.70000 520.000
7.72000 501.000
7.74000 514.000
7.76000 475.000
7.78000 515.000
7.80000 500.000
7.82000 532.000
7.84000 492.000
7.86000 511.000
7.88000 488.000
7.90000 482.000
7.92000 470.000
7.94000 459.000
7.96000 484.000
7.98000 470.000
8.00000 474.000
8.02000 508.000
8.04000 525.000
8.06000 438.000
8.08000 507.000
8.10000 506.000
8.12000 477.000
8.14000 468.000
8.16000 463.000
8.18000 476.000
8.20000 477.000
8.22000 504.000
8.24000 495.000
8.26000 512.000
8.28000 444.000
8.30000 470.000
8.32000 463.000
8.34000 460.000
8.36000 447.000
8.38000 454.000
8.40000 456.000
8.42000 456.000
8.44000 438.000
8.46000 436.000
8.48000 462.000
8.50000 436.000
8.52000 501.000
8.54000 418.000
8.56000 483.000
8.58000 489.000
8.60000 415.000
8.62000 449.000
8.64000 455.000
8.66000 434.000
8.68000 435.000
8.70000 424.000
8.72000 435.000
8.74000 467.000
8.76000 434.000
8.78000 446.000
8.80000 424.000
8.82000 473.000
8.84000 433.000
8.86000 448.000
8.88000 437.000
8.90000 456.000
8.92000 472.000
8.94000 439.000
8.96000 426.000
8.98000 437.000
9.00000 428.000
9.02000 414.000
9.04000 432.000
9.06000 394.000
9.08000 416.000
9.10000 376.000
9.12000 411.000
9.14000 416.000
9.16000 409.000
9.18000 401.000
9.20000 410.000
9.22000 430.000
9.24000 442.000
9.26000 401.000
9.28000 418.000
9.30000 414.000
9.32000 440.000
9.34000 406.000
9.36000 386.000
9.38000 395.000
9.40000 444.000
9.42000 405.000
9.44000 408.000
9.46000 407.000
9.48000 363.000
9.50000 435.000
9.52000 414.000
9.54000 371.000
9.56000 431.000
9.58000 408.000
9.60000 372.000
9.62000 413.000
9.64000 416.000
9.66000 408.000
9.68000 374.000
9.70000 395.000
9.72000 404.000
9.74000 395.000
9.76000 392.000
9.78000 378.000
9.80000 378.000
9.82000 389.000
9.84000 387.000
9.86000 391.000
9.88000 402.000
9.90000 399.000
9.92000 441.000
9.94000 379.000
9.96000 403.000
9.98000 355.000
10.00000 427.000
10.02000 390.000
10.04000 378.000
10.06000 360.000
10.08000 372.000
10.10000 394.000
10.12000 377.000
10.14000 376.000
10.16000 399.000
10.18000 380.000
10.20000 361.000
10.22000 351.000
10.24000 394.000
10.26000 377.000
10.28000 355.000
10.30000 387.000
10.32000 354.000
10.34000 378.000
10.36000 390.000
10.38000 381.000
10.40000 356.000
10.42000 365.000
10.44000 374.000
10.46000 361.000
10.48000 387.000
10.50000 340.000
10.52000 356.000
10.54000 349.000
10.56000 371.000
10.58000 349.000
10.60000 403.000
10.62000 375.000
10.64000 364.000
10.66000 360.000
10.68000 356.000
10.70000 399.000
10.72000 356.000
10.74000 370.000
10.76000 341.000
10.78000 369.000
10.80000 362.000
10.82000 351.000
10.84000 340.000
10.86000 355.000
10.88000 336.000
10.90000 318.000
10.92000 338.000
10.94000 352.000
10.96000 349.000
10.98000 376.000
11.00000 365.000
11.02000 347.000
11.04000 362.000
11.06000 383.000
11.08000 343.000
11.10000 376.000
11.12000 396.000
11.14000 345.000
11.16000 371.000
11.18000 361.000
11.20000 334.000
11.22000 357.000
11.24000 408.000
11.26000 379.000
11.28000 351.000
11.30000 401.000
11.32000 425.000
11.34000 394.000
11.36000 416.000
11.38000 434.000
11.40000 429.000
11.42000 410.000
11.44000 415.000
11.46000 490.000
11.48000 504.000
11.50000 479.000
11.52000 513.000
11.54000 521.000
11.56000 540.000
11.58000 562.000
11.60000 481.000
11.62000 501.000
11.64000 488.000
11.66000 508.000
11.68000 496.000
11.70000 451.000
11.72000 471.000
11.74000 477.000
11.76000 442.000
11.78000 436.000
11.80000 474.000
11.82000 416.000
11.84000 461.000
11.86000 451.000
11.88000 417.000
11.90000 439.000
11.92000 446.000
11.94000 456.000
11.96000 445.000
11.98000 480.000
12.00000 464.000
12.02000 490.000
12.04000 446.000
12.06000 465.000
12.08000 473.000
12.10000 466.000
12.12000 493.000
12.14000 531.000
12.16000 429.000
12.18000 506.000
12.20000 514.000
12.22000 506.000
12.24000 550.000
12.26000 523.000
12.28000 516.000
12.30000 513.000
12.32000 479.000
12.34000 438.000
12.36000 471.000
12.38000 471.000
12.40000 415.000
12.42000 417.000
12.44000 413.000
12.46000 448.000
12.48000 414.000
12.50000 412.000
12.52000 432.000
12.54000 423.000
12.56000 383.000
12.58000 427.000
12.60000 432.000
12.62000 416.000
12.64000 412.000
12.66000 463.000
12.68000 441.000
12.70000 425.000
12.72000 412.000
12.74000 400.000
12.76000 427.000
12.78000 397.000
12.80000 445.000
12.82000 432.000
12.84000 427.000
12.86000 457.000
12.88000 456.000
12.90000 478.000
12.92000 461.000
12.94000 455.000
12.96000 477.000
12.98000 471.000
13.00000 479.000
13.02000 493.000
13.04000 479.000
13.06000 500.000
13.08000 500.000
13.10000 511.000
13.12000 547.000
13.14000 500.000
13.16000 516.000
13.18000 569.000
13.20000 555.000
13.22000 560.000
13.24000 568.000
13.26000 635.000
13.28000 606.000
13.30000 632.000
13.32000 649.000
13.34000 629.000
13.36000 696.000
13.38000 715.000
13.40000 802.000
13.42000 765.000
13.44000 816.000
13.46000 808.000
13.48000 889.000
13.50000 892.000
13.52000 891.000
13.54000 942.000
13.56000 951.000
13.58000 1008.000
13.60000 1102.000
13.62000 1100.000
13.64000 1211.000
13.66000 1190.000
13.68000 1243.000
13.70000 1288.000
13.72000 1349.000
13.74000 1512.000
13.76000 1603.000
13.78000 1639.000
13.80000 1769.000
13.82000 1803.000
13.84000 1950.000
13.86000 2069.000
13.88000 2292.000
13.90000 2401.000
13.92000 2575.000
13.94000 2749.000
13.96000 3060.000
13.98000 3254.000
14.00000 3570.000
14.02000 3707.000
14.04000 3775.000
14.06000 3740.000
14.08000 3502.000
14.10000 3171.000
14.12000 2843.000
14.14000 2453.000
14.16000 2133.000
14.18000 1796.000
14.20000 1507.000
14.22000 1349.000
14.24000 1175.000
14.26000 1034.000
14.28000 926.000
14.30000 845.000
14.32000 823.000
14.34000 718.000
14.36000 696.000
14.38000 616.000
14.40000 570.000
14.42000 573.000
14.44000 530.000
14.46000 533.000
14.48000 483.000
14.50000 428.000
14.52000 394.000
14.54000 451.000
14.56000 449.000
14.58000 393.000
14.60000 378.000
14.62000 372.000
14.64000 371.000
14.66000 393.000
14.68000 336.000
14.70000 374.000
14.72000 356.000
14.74000 352.000
14.76000 295.000
14.78000 299.000
14.80000 310.000
14.82000 327.000
14.84000 325.000
14.86000 311.000
14.88000 298.000
14.90000 284.000
14.92000 293.000
14.94000 282.000
14.96000 288.000
14.98000 287.000
15.00000 276.000
15.02000 305.000
15.04000 287.000
15.06000 271.000
15.08000 264.000
15.10000 308.000
15.12000 298.000
15.14000 260.000
15.16000 274.000
15.18000 278.000
15.20000 290.000
15.22000 267.000
15.24000 252.000
15.26000 243.000
15.28000 278.000
15.30000 247.000
15.32000 251.000
15.34000 230.000
15.36000 263.000
15.38000 244.000
15.40000 253.000
15.42000 264.000
15.44000 270.000
15.46000 240.000
15.48000 259.000
15.50000 237.000
15.52000 213.000
15.54000 230.000
15.56000 221.000
15.58000 253.000
15.60000 248.000
15.62000 266.000
15.64000 237.000
15.66000 257.000
15.68000 228.000
15.70000 245.000
15.72000 245.000
15.74000 262.000
15.76000 249.000
15.78000 244.000
15.80000 230.000
15.82000 231.000
15.84000 236.000
15.86000 269.000
15.88000 223.000
15.90000 250.000
15.92000 240.000
15.94000 227.000
15.96000 243.000
15.98000 238.000
16.00000 243.000
16.02000 255.000
16.04000 249.000
16.06000 215.000
16.08000 207.000
16.10000 225.000
16.12000 261.000
16.14000 243.000
16.16000 209.000
16.18000 239.000
16.20000 247.000
16.22000 231.000
16.24000 214.000
16.26000 241.000
16.28000 230.000
16.30000 227.000
16.32000 246.000
16.34000 227.000
16.36000 228.000
16.38000 234.000
16.40000 246.000
16.42000 215.000
16.44000 250.000
16.46000 246.000
16.48000 223.000
16.50000 222.000
16.52000 233.000
16.54000 239.000
16.56000 244.000
16.58000 214.000
16.60000 230.000
16.62000 220.000
16.64000 223.000
16.66000 223.000
16.68000 222.000
16.70000 231.000
16.72000 221.000
16.74000 221.000
16.76000 221.000
16.78000 230.000
16.80000 222.000
16.82000 190.000
16.84000 223.000
16.86000 193.000
16.88000 193.000
16.90000 227.000
16.92000 209.000
16.94000 222.000
16.96000 246.000
16.98000 240.000
17.00000 209.000
17.02000 243.000
17.04000 254.000
17.06000 219.000
17.08000 223.000
17.10000 204.000
17.12000 222.000
17.14000 231.000
17.16000 206.000
17.18000 230.000
17.20000 207.000
17.22000 230.000
17.24000 202.000
17.26000 190.000
17.28000 219.000
17.30000 218.000
17.32000 231.000
17.34000 192.000
17.36000 203.000
17.38000 225.000
17.40000 191.000
17.42000 221.000
17.44000 219.000
17.46000 194.000
17.48000 218.000
17.50000 231.000
17.52000 215.000
17.54000 241.000
17.56000 226.000
17.58000 208.000
17.60000 224.000
17.62000 224.000
17.64000 228.000
17.66000 223.000
17.68000 198.000
17.70000 228.000
17.72000 232.000
17.74000 226.000
17.76000 227.000
17.78000 230.000
17.80000 240.000
17.82000 213.000
17.84000 227.000
17.86000 184.000
17.88000 206.000
17.90000 233.000
17.92000 219.000
17.94000 234.000
17.96000 211.000
17.98000 208.000
18.00000 219.000
18.02000 195.000
18.04000 228.000
18.06000 207.000
18.08000 230.000
18.10000 205.000
18.12000 234.000
18.14000 210.000
18.16000 194.000
18.18000 218.000
18.20000 226.000
18.22000 219.000
18.24000 241.000
18.26000 225.000
18.28000 220.000
18.30000 206.000
18.32000 228.000
18.34000 232.000
18.36000 228.000
18.38000 187.000
18.40000 198.000
18.42000 230.000
18.44000 203.000
18.46000 224.000
18.48000 189.000
18.50000 203.000
18.52000 219.000
18.54000 213.000
18.56000 224.000
18.58000 215.000
18.60000 224.000
18.62000 186.000
18.64000 194.000
18.66000 201.000
18.68000 233.000
18.70000 219.000
18.72000 211.000
18.74000 213.000
18.76000 209.000
18.78000 221.000
18.80000 212.000
18.82000 209.000
18.84000 239.000
18.86000 212.000
18.88000 200.000
18.90000 232.000
18.92000 231.000
18.94000 239.000
18.96000 260.000
18.98000 208.000
19.00000 215.000
19.02000 223.000
19.04000 246.000
19.06000 217.000
19.08000 246.000
19.10000 225.000
19.12000 220.000
19.14000 200.000
19.16000 234.000
19.18000 232.000
19.20000 208.000
19.22000 215.000
19.24000 232.000
19.26000 198.000
19.28000 221.000
19.30000 225.000
19.32000 230.000
19.34000 212.000
19.36000 209.000
19.38000 226.000
19.40000 236.000
19.42000 242.000
19.44000 226.000
19.46000 227.000
19.48000 226.000
19.50000 230.000
19.52000 278.000
19.54000 270.000
19.56000 246.000
19.58000 284.000
19.60000 243.000
19.62000 271.000
19.64000 277.000
19.66000 320.000
19.68000 289.000
19.70000 303.000
19.72000 284.000
19.74000 346.000
19.76000 332.000
19.78000 363.000
19.80000 424.000
19.82000 411.000
19.84000 464.000
19.86000 469.000
19.88000 486.000
19.90000 538.000
19.92000 605.000
19.94000 592.000
19.96000 565.000
19.98000 569.000
20.00000 474.000
20.02000 438.000
20.04000 375.000
20.06000 338.000
20.08000 327.000
20.10000 288.000
20.12000 271.000
20.14000 271.000
20.16000 265.000
20.18000 266.000
20.20000 227.000
20.22000 234.000
20.24000 235.000
20.26000 237.000
20.28000 218.000
20.30000 235.000
20.32000 219.000
20.34000 235.000
20.36000 244.000
20.38000 227.000
20.40000 217.000
20.42000 222.000
20.44000 213.000
20.46000 237.000
20.48000 211.000
20.50000 215.000
20.52000 218.000
20.54000 227.000
20.56000 214.000
20.58000 190.000
20.60000 200.000
20.62000 226.000
20.64000 235.000
20.66000 217.000
20.68000 207.000
20.70000 234.000
20.72000 208.000
20.74000 220.000
20.76000 227.000
20.78000 216.000
20.80000 217.000
20.82000 216.000
20.84000 228.000
20.86000 226.000
20.88000 228.000
20.90000 208.000
20.92000 206.000
20.94000 195.000
20.96000 212.000
20.98000 207.000
21.00000 216.000
21.02000 201.000
21.04000 233.000
21.06000 225.000
21.08000 210.000
21.10000 227.000
21.12000 243.000
21.14000 213.000
21.16000 221.000
21.18000 200.000
21.20000 203.000
21.22000 230.000
21.24000 195.000
21.26000 221.000
21.28000 229.000
21.30000 245.000
21.32000 235.000
21.34000 228.000
21.36000 193.000
21.38000 214.000
21.40000 201.000
21.42000 213.000
21.44000 215.000
21.46000 244.000
21.48000 219.000
21.50000 221.000
21.52000 229.000
21.54000 213.000
21.56000 213.000
21.58000 224.000
21.60000 207.000
21.62000 221.000
21.64000 218.000
21.66000 212.000
21.68000 214.000
21.70000 241.000
21.72000 221.000
21.74000 222.000
21.76000 245.000
21.78000 230.000
21.80000 251.000
21.82000 188.000
21.84000 227.000
21.86000 196.000
21.88000 230.000
21.90000 212.000
21.92000 231.000
21.94000 209.000
21.96000 203.000
21.98000 222.000
22.00000 213.000
22.02000 224.000
22.04000 233.000
22.06000 207.000
22.08000 217.000
22.10000 249.000
22.12000 234.000
22.14000 243.000
22.16000 241.000
22.18000 226.000
22.20000 221.000
22.22000 225.000
22.24000 221.000
22.26000 194.000
22.28000 213.000
22.30000 200.000
22.32000 222.000
22.34000 208.000
22.36000 208.000
22.38000 223.000
22.40000 226.000
22.42000 221.000
22.44000 207.000
22.46000 214.000
22.48000 234.000
22.50000 217.000
22.52000 215.000
22.54000 223.000
22.56000 236.000
22.58000 226.000
22.60000 199.000
22.62000 230.000
22.64000 219.000
22.66000 218.000
22.68000 212.000
22.70000 201.000
22.72000 201.000
22.74000 222.000
22.76000 232.000
22.78000 217.000
22.80000 206.000
22.82000 216.000
22.84000 238.000
22.86000 232.000
22.88000 223.000
22.90000 197.000
22.92000 207.000
22.94000 204.000
22.96000 231.000
22.98000 207.000
23.00000 210.000
23.02000 210.000
23.04000 231.000
23.06000 218.000
23.08000 219.000
23.10000 220.000
23.12000 224.000
23.14000 248.000
23.16000 223.000
23.18000 214.000
23.20000 229.000
23.22000 222.000
23.24000 229.000
23.26000 257.000
23.28000 228.000
23.30000 243.000
23.32000 222.000
23.34000 257.000
23.36000 261.000
23.38000 258.000
23.40000 231.000
23.42000 242.000
23.44000 241.000
23.46000 245.000
23.48000 239.000
23.50000 226.000
23.52000 267.000
23.54000 232.000
23.56000 246.000
23.58000 288.000
23.60000 248.000
23.62000 234.000
23.64000 247.000
23.66000 245.000
23.68000 253.000
23.70000 219.000
23.72000 252.000
23.74000 239.000
23.76000 285.000
23.78000 240.000
23.80000 258.000
23.82000 249.000
23.84000 240.000
23.86000 243.000
23.88000 251.000
23.90000 246.000
23.92000 252.000
23.94000 261.000
23.96000 287.000
23.98000 281.000
24.00000 272.000
24.02000 273.000
24.04000 288.000
24.06000 297.000
24.08000 283.000
24.10000 307.000
24.12000 306.000
24.14000 400.000
24.16000 330.000
24.18000 365.000
24.20000 364.000
24.22000 406.000
24.24000 452.000
24.26000 505.000
24.28000 485.000
24.30000 550.000
24.32000 621.000
24.34000 666.000
24.36000 720.000
24.38000 772.000
24.40000 905.000
24.42000 939.000
24.44000 978.000
24.46000 1001.000
24.48000 955.000
24.50000 941.000
24.52000 896.000
24.54000 767.000
24.56000 712.000
24.58000 636.000
24.60000 648.000
24.62000 532.000
24.64000 479.000
24.66000 475.000
24.68000 443.000
24.70000 413.000
24.72000 388.000
24.74000 405.000
24.76000 380.000
24.78000 377.000
24.80000 340.000
24.82000 332.000
24.84000 305.000
24.86000 314.000
24.88000 287.000
24.90000 300.000
24.92000 293.000
24.94000 296.000
24.96000 283.000
24.98000 262.000
25.00000 264.000
25.02000 256.000
25.04000 271.000
25.06000 280.000
25.08000 281.000
25.10000 286.000
25.12000 258.000
25.14000 260.000
25.16000 276.000
25.18000 268.000
25.20000 258.000
25.22000 241.000
25.24000 247.000
25.26000 269.000
25.28000 248.000
25.30000 245.000
25.32000 231.000
25.34000 236.000
25.36000 259.000
25.38000 222.000
25.40000 255.000
25.42000 267.000
25.44000 236.000
25.46000 244.000
25.48000 228.000
25.50000 261.000
25.52000 241.000
25.54000 236.000
25.56000 266.000
25.58000 258.000
25.60000 259.000
25.62000 265.000
25.64000 228.000
25.66000 254.000
25.68000 261.000
25.70000 234.000
25.72000 246.000
25.74000 252.000
25.76000 245.000
25.78000 231.000
25.80000 266.000
25.82000 246.000
25.84000 263.000
25.86000 222.000
25.88000 259.000
25.90000 262.000
25.92000 265.000
25.94000 272.000
25.96000 259.000
25.98000 280.000
26.00000 278.000
26.02000 293.000
26.04000 285.000
26.06000 307.000
26.08000 285.000
26.10000 284.000
26.12000 316.000
26.14000 304.000
26.16000 296.000
26.18000 289.000
26.20000 276.000
26.22000 297.000
26.24000 272.000
26.26000 261.000
26.28000 274.000
26.30000 248.000
26.32000 273.000
26.34000 262.000
26.36000 253.000
26.38000 265.000
26.40000 273.000
26.42000 266.000
26.44000 243.000
26.46000 233.000
26.48000 256.000
26.50000 253.000
26.52000 243.000
26.54000 243.000
26.56000 230.000
26.58000 227.000
26.60000 276.000
26.62000 238.000
26.64000 268.000
26.66000 248.000
26.68000 267.000
26.70000 255.000
26.72000 221.000
26.74000 253.000
26.76000 267.000
26.78000 298.000
26.80000 276.000
26.82000 262.000
26.84000 267.000
26.86000 251.000
26.88000 260.000
26.90000 273.000
26.92000 300.000
26.94000 265.000
26.96000 293.000
26.98000 249.000
27.00000 253.000
27.02000 279.000
27.04000 314.000
27.06000 293.000
27.08000 291.000
27.10000 307.000
27.12000 314.000
27.14000 296.000
27.16000 272.000
27.18000 290.000
27.20000 282.000
27.22000 279.000
27.24000 324.000
27.26000 297.000
27.28000 309.000
27.30000 297.000
27.32000 316.000
27.34000 317.000
27.36000 294.000
27.38000 304.000
27.40000 331.000
27.42000 322.000
27.44000 333.000
27.46000 315.000
27.48000 320.000
27.50000 323.000
27.52000 367.000
27.54000 354.000
27.56000 347.000
27.58000 368.000
27.60000 351.000
27.62000 374.000
27.64000 364.000
27.66000 370.000
27.68000 388.000
27.70000 421.000
27.72000 405.000
27.74000 458.000
27.76000 439.000
27.78000 430.000
27.80000 492.000
27.82000 540.000
27.84000 549.000
27.86000 543.000
27.88000 618.000
27.90000 611.000
27.92000 617.000
27.94000 679.000
27.96000 730.000
27.98000 773.000
28.00000 811.000
28.02000 903.000
28.04000 946.000
28.06000 1019.000
28.08000 1202.000
28.10000 1197.000
28.12000 1357.000
28.14000 1471.000
28.16000 1599.000
28.18000 1831.000
28.20000 1903.000
28.22000 2083.000
28.24000 2368.000
28.26000 2613.000
28.28000 2740.000
28.30000 2849.000
28.32000 2853.000
28.34000 2757.000
28.36000 2481.000
28.38000 2365.000
28.40000 2035.000
28.42000 1757.000
28.44000 1604.000
28.46000 1332.000
28.48000 1175.000
28.50000 1054.000
28.52000 982.000
28.54000 936.000
28.56000 781.000
28.58000 794.000
28.60000 698.000
28.62000 654.000
28.64000 601.000
28.66000 583.000
28.68000 512.000
28.70000 529.000
28.72000 493.000
28.74000 489.000
28.76000 444.000
28.78000 455.000
28.80000 379.000
28.82000 398.000
28.84000 360.000
28.86000 417.000
28.88000 388.000
28.90000 354.000
28.92000 391.000
28.94000 317.000
28.96000 338.000
28.98000 337.000
29.00000 343.000
29.02000 305.000
29.04000 324.000
29.06000 303.000
29.08000 289.000
29.10000 296.000
29.12000 316.000
29.14000 296.000
29.16000 289.000
29.18000 262.000
29.20000 301.000
29.22000 272.000
29.24000 287.000
29.26000 295.000
29.28000 269.000
29.30000 249.000
29.32000 246.000
29.34000 283.000
29.36000 270.000
29.38000 266.000
29.40000 270.000
29.42000 256.000
29.44000 250.000
29.46000 253.000
29.48000 233.000
29.50000 251.000
29.52000 216.000
29.54000 254.000
29.56000 253.000
29.58000 222.000
29.60000 235.000
29.62000 241.000
29.64000 245.000
29.66000 249.000
29.68000 221.000
29.70000 236.000
29.72000 213.000
29.74000 235.000
29.76000 234.000
29.78000 222.000
29.80000 195.000
29.82000 248.000
29.84000 248.000
29.86000 224.000
29.88000 229.000
29.90000 245.000
29.92000 268.000
29.94000 212.000
29.96000 235.000
29.98000 257.000
30.00000 223.000
30.02000 238.000
30.04000 224.000
30.06000 227.000
30.08000 229.000
30.10000 229.000
30.12000 229.000
30.14000 223.000
30.16000 233.000
30.18000 246.000
30.20000 253.000
30.22000 237.000
30.24000 238.000
30.26000 261.000
30.28000 271.000
30.30000 256.000
30.32000 265.000
30.34000 265.000
30.36000 265.000
30.38000 245.000
30.40000 277.000
30.42000 254.000
30.44000 250.000
30.46000 248.000
30.48000 296.000
30.50000 253.000
30.52000 254.000
30.54000 277.000
30.56000 259.000
30.58000 241.000
30.60000 246.000
30.62000 253.000
30.64000 293.000
30.66000 273.000
30.68000 299.000
30.70000 252.000
30.72000 304.000
30.74000 248.000
30.76000 272.000
30.78000 275.000
30.80000 308.000
30.82000 295.000
30.84000 272.000
30.86000 286.000
30.88000 267.000
30.90000 274.000
30.92000 306.000
30.94000 285.000
30.96000 279.000
30.98000 291.000
31.00000 285.000
31.02000 277.000
31.04000 290.000
31.06000 291.000
31.08000 307.000
31.10000 312.000
31.12000 316.000
31.14000 288.000
31.16000 301.000
31.18000 324.000
31.20000 359.000
31.22000 338.000
31.24000 353.000
31.26000 387.000
31.28000 403.000
31.30000 419.000
31.32000 417.000
31.34000 475.000
31.36000 478.000
31.38000 540.000
31.40000 551.000
31.42000 607.000
31.44000 648.000
31.46000 764.000
31.48000 809.000
31.50000 911.000
31.52000 1048.000
31.54000 1055.000
31.56000 1200.000
31.58000 1396.000
31.60000 1560.000
31.62000 1751.000
31.64000 1952.000
31.66000 2052.000
31.68000 2344.000
31.70000 2551.000
31.72000 2581.000
31.74000 2529.000
31.76000 2443.000
31.78000 2195.000
31.80000 2071.000
31.82000 1832.000
31.84000 1680.000
31.86000 1416.000
31.88000 1273.000
31.90000 1082.000
31.92000 983.000
31.94000 776.000
31.96000 755.000
31.98000 642.000
32.00000 609.000
32.02000 544.000
32.04000 507.000
32.06000 442.000
32.08000 406.000
32.10000 390.000
32.12000 360.000
32.14000 346.000
32.16000 350.000
32.18000 295.000
32.20000 275.000
32.22000 281.000
32.24000 267.000
32.26000 228.000
32.28000 273.000
32.30000 278.000
32.32000 250.000
32.34000 229.000
32.36000 221.000
32.38000 235.000
32.40000 233.000
32.42000 272.000
32.44000 232.000
32.46000 248.000
32.48000 232.000
32.50000 205.000
32.52000 217.000
32.54000 192.000
32.56000 210.000
32.58000 196.000
32.60000 215.000
32.62000 211.000
32.64000 212.000
32.66000 207.000
32.68000 197.000
32.70000 188.000
32.72000 187.000
32.74000 230.000
32.76000 179.000
32.78000 208.000
32.80000 203.000
32.82000 196.000
32.84000 184.000
32.86000 206.000
32.88000 197.000
32.90000 218.000
32.92000 204.000
32.94000 189.000
32.96000 224.000
32.98000 189.000
33.00000 205.000
33.02000 193.000
33.04000 193.000
33.06000 189.000
33.08000 193.000
33.10000 205.000
33.12000 185.000
33.14000 172.000
33.16000 209.000
33.18000 191.000
33.20000 190.000
33.22000 205.000
33.24000 197.000
33.26000 220.000
33.28000 201.000
33.30000 182.000
33.32000 177.000
33.34000 200.000
33.36000 192.000
33.38000 207.000
33.40000 182.000
33.42000 183.000
33.44000 205.000
33.46000 196.000
33.48000 196.000
33.50000 191.000
33.52000 205.000
33.54000 162.000
33.56000 196.000
33.58000 217.000
33.60000 159.000
33.62000 144.000
33.64000 196.000
33.66000 176.000
33.68000 201.000
33.70000 198.000
33.72000 168.000
33.74000 175.000
33.76000 164.000
33.78000 166.000
33.80000 191.000
33.82000 176.000
33.84000 176.000
33.86000 186.000
33.88000 197.000
33.90000 155.000
33.92000 183.000
33.94000 155.000
33.96000 180.000
33.98000 149.000
34.00000 177.000
34.02000 167.000
34.04000 174.000
34.06000 183.000
34.08000 177.000
34.10000 171.000
34.12000 176.000
34.14000 191.000
34.16000 184.000
34.18000 166.000
34.20000 188.000
34.22000 188.000
34.24000 168.000
34.26000 174.000
34.28000 173.000
34.30000 180.000
34.32000 174.000
34.34000 174.000
34.36000 199.000
34.38000 187.000
34.40000 176.000
34.42000 198.000
34.44000 171.000
34.46000 182.000
34.48000 200.000
34.50000 198.000
34.52000 183.000
34.54000 213.000
34.56000 202.000
34.58000 222.000
34.60000 217.000
34.62000 228.000
34.64000 250.000
34.66000 263.000
34.68000 238.000
34.70000 272.000
34.72000 286.000
34.74000 330.000
34.76000 309.000
34.78000 380.000
34.80000 414.000
34.82000 439.000
34.84000 483.000
34.86000 484.000
34.88000 498.000
34.90000 519.000
34.92000 465.000
34.94000 437.000
34.96000 468.000
34.98000 405.000
35.00000 367.000
35.02000 358.000
35.04000 287.000
35.06000 276.000
35.08000 256.000
35.10000 233.000
35.12000 233.000
35.14000 235.000
35.16000 208.000
35.18000 228.000
35.20000 194.000
35.22000 206.000
35.24000 209.000
35.26000 194.000
35.28000 198.000
35.30000 193.000
35.32000 172.000
35.34000 192.000
35.36000 189.000
35.38000 216.000
35.40000 171.000
35.42000 186.000
35.44000 185.000
35.46000 174.000
35.48000 169.000
35.50000 186.000
35.52000 161.000
35.54000 195.000
35.56000 185.000
35.58000 174.000
35.60000 188.000
35.62000 158.000
35.64000 176.000
35.66000 178.000
35.68000 164.000
35.70000 158.000
35.72000 159.000
35.74000 158.000
35.76000 182.000
35.78000 181.000
35.80000 146.000
35.82000 159.000
35.84000 153.000
35.86000 167.000
35.88000 158.000
35.90000 185.000
35.92000 151.000
35.94000 189.000
35.96000 171.000
35.98000 138.000
36.00000 167.000
36.02000 160.000
36.04000 178.000
36.06000 184.000
36.08000 151.000
36.10000 147.000
36.12000 183.000
36.14000 175.000
36.16000 165.000
36.18000 171.000
36.20000 168.000
36.22000 153.000
36.24000 168.000
36.26000 181.000
36.28000 184.000
36.30000 160.000
36.32000 158.000
36.34000 163.000
36.36000 171.000
36.38000 170.000
36.40000 168.000
36.42000 176.000
36.44000 189.000
36.46000 183.000
36.48000 167.000
36.50000 145.000
36.52000 173.000
36.54000 171.000
36.56000 168.000
36.58000 184.000
36.60000 173.000
36.62000 151.000
36.64000 168.000
36.66000 148.000
36.68000 158.000
36.70000 155.000
36.72000 161.000
36.74000 168.000
36.76000 172.000
36.78000 172.000
36.80000 157.000
36.82000 177.000
36.84000 161.000
36.86000 145.000
36.88000 172.000
36.90000 143.000
36.92000 165.000
36.94000 173.000
36.96000 174.000
36.98000 168.000
37.00000 149.000
37.02000 176.000
37.04000 160.000
37.06000 159.000
37.08000 165.000
37.10000 165.000
37.12000 154.000
37.14000 162.000
37.16000 163.000
37.18000 145.000
37.20000 155.000
37.22000 199.000
37.24000 139.000
37.26000 146.000
37.28000 148.000
37.30000 154.000
37.32000 171.000
37.34000 156.000
37.36000 156.000
37.38000 135.000
37.40000 152.000
37.42000 167.000
37.44000 153.000
37.46000 160.000
37.48000 153.000
37.50000 161.000
37.52000 148.000
37.54000 163.000
37.56000 147.000
37.58000 147.000
37.60000 149.000
37.62000 159.000
37.64000 150.000
37.66000 162.000
37.68000 148.000
37.70000 169.000
37.72000 161.000
37.74000 170.000
37.76000 158.000
37.78000 170.000
37.80000 163.000
37.82000 150.000
37.84000 149.000
37.86000 162.000
37.88000 159.000
37.90000 163.000
37.92000 162.000
37.94000 193.000
37.96000 137.000
37.98000 180.000
38.00000 161.000
38.02000 155.000
38.04000 151.000
38.06000 169.000
38.08000 169.000
38.10000 168.000
38.12000 173.000
38.14000 160.000
38.16000 158.000
38.18000 148.000
38.20000 162.000
38.22000 157.000
38.24000 164.000
38.26000 156.000
38.28000 135.000
38.30000 168.000
38.32000 137.000
38.34000 165.000
38.36000 154.000
38.38000 168.000
38.40000 155.000
38.42000 161.000
38.44000 146.000
38.46000 180.000
38.48000 139.000
38.50000 148.000
38.52000 148.000
38.54000 176.000
38.56000 180.000
38.58000 191.000
38.60000 165.000
38.62000 178.000
38.64000 177.000
38.66000 184.000
38.68000 180.000
38.70000 166.000
38.72000 190.000
38.74000 191.000
38.76000 182.000
38.78000 172.000
38.80000 150.000
38.82000 179.000
38.84000 160.000
38.86000 176.000
38.88000 180.000
38.90000 157.000
38.92000 148.000
38.94000 165.000
38.96000 173.000
38.98000 152.000
39.00000 195.000
39.02000 157.000
39.04000 184.000
39.06000 148.000
39.08000 179.000
39.10000 186.000
39.12000 166.000
39.14000 167.000
39.16000 166.000
39.18000 171.000
39.20000 162.000
39.22000 169.000
39.24000 165.000
39.26000 153.000
39.28000 190.000
39.30000 161.000
39.32000 163.000
39.34000 162.000
39.36000 196.000
39.38000 173.000
39.40000 170.000
39.42000 147.000
39.44000 155.000
39.46000 176.000
39.48000 180.000
39.50000 165.000
39.52000 195.000
39.54000 195.000
39.56000 170.000
39.58000 196.000
39.60000 202.000
39.62000 202.000
39.64000 170.000
39.66000 180.000
39.68000 198.000
39.70000 205.000
39.72000 171.000
39.74000 190.000
39.76000 205.000
39.78000 188.000
39.80000 187.000
39.82000 197.000
39.84000 212.000
39.86000 201.000
39.88000 192.000
39.90000 248.000
39.92000 200.000
39.94000 202.000
39.96000 202.000
39.98000 219.000
40.00000 244.000
40.02000 223.000
40.04000 222.000
40.06000 232.000
40.08000 231.000
40.10000 248.000
40.12000 255.000
40.14000 271.000
40.16000 266.000
40.18000 297.000
40.20000 322.000
40.22000 375.000
40.24000 386.000
40.26000 435.000
40.28000 455.000
40.30000 523.000
40.32000 598.000
40.34000 671.000
40.36000 771.000
40.38000 917.000
40.40000 966.000
40.42000 1157.000
40.44000 1307.000
40.46000 1417.000
40.48000 1520.000
40.50000 1476.000
40.52000 1492.000
40.54000 1396.000
40.56000 1333.000
40.58000 1136.000
40.60000 1062.000
40.62000 917.000
40.64000 807.000
40.66000 719.000
40.68000 634.000
40.70000 542.000
40.72000 443.000
40.74000 424.000
40.76000 363.000
40.78000 340.000
40.80000 346.000
40.82000 318.000
40.84000 324.000
40.86000 277.000
40.88000 262.000
40.90000 243.000
40.92000 237.000
40.94000 241.000
40.96000 234.000
40.98000 209.000
41.00000 257.000
41.02000 218.000
41.04000 200.000
41.06000 209.000
41.08000 206.000
41.10000 211.000
41.12000 216.000
41.14000 195.000
41.16000 247.000
41.18000 223.000
41.20000 200.000
41.22000 189.000
41.24000 202.000
41.26000 171.000
41.28000 206.000
41.30000 184.000
41.32000 178.000
41.34000 198.000
41.36000 173.000
41.38000 205.000
41.40000 179.000
41.42000 186.000
41.44000 183.000
41.46000 192.000
41.48000 194.000
41.50000 174.000
41.52000 168.000
41.54000 158.000
41.56000 172.000
41.58000 165.000
41.60000 162.000
41.62000 192.000
41.64000 162.000
41.66000 170.000
41.68000 168.000
41.70000 163.000
41.72000 169.000
41.74000 179.000
41.76000 169.000
41.78000 197.000
41.80000 193.000
41.82000 199.000
41.84000 208.000
41.86000 175.000
41.88000 179.000
41.90000 173.000
41.92000 176.000
41.94000 185.000
41.96000 167.000
41.98000 179.000
42.00000 197.000
42.02000 194.000
42.04000 198.000
42.06000 214.000
42.08000 179.000
42.10000 200.000
42.12000 184.000
42.14000 176.000
42.16000 198.000
42.18000 176.000
42.20000 188.000
42.22000 198.000
42.24000 167.000
42.26000 201.000
42.28000 222.000
42.30000 201.000
42.32000 190.000
42.34000 207.000
42.36000 206.000
42.38000 217.000
42.40000 196.000
42.42000 227.000
42.44000 237.000
42.46000 225.000
42.48000 223.000
42.50000 212.000
42.52000 220.000
42.54000 226.000
42.56000 216.000
42.58000 208.000
42.60000 240.000
42.62000 224.000
42.64000 268.000
42.66000 292.000
42.68000 269.000
42.70000 273.000
42.72000 302.000
42.74000 352.000
42.76000 343.000
42.78000 378.000
42.80000 412.000
42.82000 500.000
42.84000 517.000
42.86000 617.000
42.88000 680.000
42.90000 835.000
42.92000 910.000
42.94000 988.000
42.96000 1205.000
42.98000 1318.000
43.00000 1418.000
43.02000 1488.000
43.04000 1453.000
43.06000 1378.000
43.08000 1351.000
43.10000 1290.000
43.12000 1210.000
43.14000 1074.000
43.16000 1005.000
43.18000 904.000
43.20000 812.000
43.22000 693.000
43.24000 620.000
43.26000 536.000
43.28000 459.000
43.30000 472.000
43.32000 411.000
43.34000 370.000
43.36000 316.000
43.38000 307.000
43.40000 298.000
43.42000 294.000
43.44000 247.000
43.46000 250.000
43.48000 224.000
43.50000 228.000
43.52000 221.000
43.54000 211.000
43.56000 186.000
43.58000 217.000
43.60000 217.000
43.62000 210.000
43.64000 182.000
43.66000 203.000
43.68000 179.000
43.70000 190.000
43.72000 174.000
43.74000 188.000
43.76000 163.000
43.78000 152.000
43.80000 179.000
43.82000 187.000
43.84000 179.000
43.86000 139.000
43.88000 156.000
43.90000 166.000
43.92000 180.000
43.94000 163.000
43.96000 153.000
43.98000 166.000
44.00000 173.000
44.02000 139.000
44.04000 160.000
44.06000 183.000
44.08000 155.000
44.10000 157.000
44.12000 153.000
44.14000 166.000
44.16000 135.000
44.18000 175.000
44.20000 163.000
44.22000 163.000
44.24000 152.000
44.26000 146.000
44.28000 156.000
44.30000 152.000
44.32000 150.000
44.34000 135.000
44.36000 160.000
44.38000 168.000
44.40000 151.000
44.42000 178.000
44.44000 149.000
44.46000 160.000
44.48000 150.000
44.50000 145.000
44.52000 155.000
44.54000 140.000
44.56000 152.000
44.58000 175.000
44.60000 157.000
44.62000 148.000
44.64000 149.000
44.66000 131.000
44.68000 146.000
44.70000 134.000
44.72000 160.000
44.74000 153.000
44.76000 135.000
44.78000 161.000
44.80000 133.000
44.82000 145.000
44.84000 161.000
44.86000 148.000
44.88000 166.000
44.90000 139.000
44.92000 135.000
44.94000 142.000
44.96000 149.000
44.98000 148.000
45.00000 147.000
45.02000 151.000
45.04000 148.000
45.06000 150.000
45.08000 140.000
45.10000 144.000
45.12000 137.000
45.14000 149.000
45.16000 153.000
45.18000 148.000
45.20000 164.000
45.22000 156.000
45.24000 152.000
45.26000 158.000
45.28000 144.000
45.30000 140.000
45.32000 174.000
45.34000 154.000
45.36000 186.000
45.38000 161.000
45.40000 172.000
45.42000 164.000
45.44000 173.000
45.46000 190.000
45.48000 164.000
45.50000 155.000
45.52000 181.000
45.54000 154.000
45.56000 176.000
45.58000 161.000
45.60000 170.000
45.62000 146.000
45.64000 166.000
45.66000 146.000
45.68000 145.000
45.70000 140.000
45.72000 167.000
45.74000 171.000
45.76000 148.000
45.78000 150.000
45.80000 141.000
45.82000 147.000
45.84000 149.000
45.86000 143.000
45.88000 132.000
45.90000 139.000
45.92000 144.000
45.94000 124.000
45.96000 141.000
45.98000 131.000
46.00000 128.000
46.02000 121.000
46.04000 124.000
46.06000 131.000
46.08000 147.000
46.10000 118.000
46.12000 128.000
46.14000 118.000
46.16000 146.000
46.18000 146.000
46.20000 137.000
46.22000 152.000
46.24000 138.000
46.26000 141.000
46.28000 126.000
46.30000 103.000
46.32000 144.000
46.34000 129.000
46.36000 109.000
46.38000 134.000
46.40000 132.000
46.42000 126.000
46.44000 124.000
46.46000 147.000
46.48000 138.000
46.50000 116.000
46.52000 162.000
46.54000 139.000
46.56000 136.000
46.58000 135.000
46.60000 136.000
46.62000 135.000
46.64000 160.000
46.66000 127.000
46.68000 131.000
46.70000 126.000
46.72000 129.000
46.74000 118.000
46.76000 114.000
46.78000 139.000
46.80000 129.000
46.82000 128.000
46.84000 133.000
46.86000 125.000
46.88000 127.000
46.90000 143.000
46.92000 128.000
46.94000 109.000
46.96000 131.000
46.98000 128.000
47.00000 112.000
47.02000 115.000
47.04000 134.000
47.06000 122.000
47.08000 111.000
47.10000 128.000
47.12000 132.000
47.14000 131.000
47.16000 130.000
47.18000 137.000
47.20000 144.000
47.22000 139.000
47.24000 122.000
47.26000 123.000
47.28000 126.000
47.30000 123.000
47.32000 121.000
47.34000 126.000
47.36000 128.000
47.38000 118.000
47.40000 130.000
47.42000 100.000
47.44000 135.000
47.46000 149.000
47.48000 144.000
47.50000 135.000
47.52000 124.000
47.54000 144.000
47.56000 132.000
47.58000 132.000
47.60000 131.000
47.62000 139.000
47.64000 127.000
47.66000 145.000
47.68000 134.000
47.70000 144.000
47.72000 137.000
47.74000 136.000
47.76000 149.000
47.78000 169.000
47.80000 166.000
47.82000 176.000
47.84000 169.000
47.86000 176.000
47.88000 177.000
47.90000 151.000
47.92000 154.000
47.94000 147.000
47.96000 157.000
47.98000 147.000
48.00000 125.000
48.02000 161.000
48.04000 138.000
48.06000 141.000
48.08000 145.000
48.10000 124.000
48.12000 139.000
48.14000 125.000
48.16000 139.000
48.18000 125.000
48.20000 123.000
48.22000 128.000
48.24000 123.000
48.26000 112.000
48.28000 138.000
48.30000 133.000
48.32000 124.000
48.34000 123.000
48.36000 129.000
48.38000 146.000
48.40000 124.000
48.42000 119.000
48.44000 119.000
48.46000 115.000
48.48000 129.000
48.50000 120.000
48.52000 131.000
48.54000 114.000
48.56000 112.000
48.58000 120.000
48.60000 135.000
48.62000 117.000
48.64000 143.000
48.66000 148.000
48.68000 113.000
48.70000 129.000
48.72000 116.000
48.74000 112.000
48.76000 124.000
48.78000 128.000
48.80000 123.000
48.82000 127.000
48.84000 133.000
48.86000 109.000
48.88000 135.000
48.90000 141.000
48.92000 114.000
48.94000 130.000
48.96000 126.000
48.98000 103.000
49.00000 132.000
49.02000 118.000
49.04000 122.000
49.06000 132.000
49.08000 136.000
49.10000 130.000
49.12000 113.000
49.14000 121.000
49.16000 127.000
49.18000 117.000
49.20000 114.000
49.22000 134.000
49.24000 119.000
49.26000 121.000
49.28000 110.000
49.30000 100.000
49.32000 108.000
49.34000 121.000
49.36000 113.000
49.38000 117.000
49.40000 116.000
49.42000 107.000
49.44000 131.000
49.46000 124.000
49.48000 120.000
49.50000 135.000
49.52000 131.000
49.54000 149.000
49.56000 122.000
49.58000 146.000
49.60000 145.000
49.62000 124.000
49.64000 142.000
49.66000 134.000
49.68000 128.000
49.70000 117.000
49.72000 158.000
49.74000 144.000
49.76000 156.000
49.78000 184.000
49.80000 159.000
49.82000 166.000
49.84000 167.000
49.86000 194.000
49.88000 183.000
49.90000 209.000
49.92000 227.000
49.94000 245.000
49.96000 238.000
49.98000 238.000
50.00000 276.000
50.02000 320.000
50.04000 344.000
50.06000 373.000
50.08000 380.000
50.10000 399.000
50.12000 416.000
50.14000 405.000
50.16000 400.000
50.18000 367.000
50.20000 371.000
50.22000 360.000
50.24000 319.000
50.26000 354.000
50.28000 290.000
50.30000 299.000
50.32000 263.000
50.34000 216.000
50.36000 230.000
50.38000 218.000
50.40000 217.000
50.42000 206.000
50.44000 173.000
50.46000 151.000
50.48000 168.000
50.50000 173.000
50.52000 152.000
50.54000 147.000
50.56000 144.000
50.58000 147.000
50.60000 130.000
50.62000 138.000
50.64000 124.000
50.66000 137.000
50.68000 127.000
50.70000 140.000
50.72000 144.000
50.74000 134.000
50.76000 111.000
50.78000 133.000
50.80000 126.000
50.82000 113.000
50.84000 117.000
50.86000 114.000
50.88000 123.000
50.90000 120.000
50.92000 128.000
50.94000 98.000
50.96000 135.000
50.98000 108.000
51.00000 111.000
51.02000 129.000
51.04000 103.000
51.06000 115.000
51.08000 135.000
51.10000 122.000
51.12000 127.000
51.14000 116.000
51.16000 133.000
51.18000 127.000
51.20000 122.000
51.22000 128.000
51.24000 147.000
51.26000 109.000
51.28000 144.000
51.30000 113.000
51.32000 104.000
51.34000 123.000
51.36000 109.000
51.38000 121.000
51.40000 119.000
51.42000 113.000
51.44000 138.000
51.46000 125.000
51.48000 104.000
51.50000 113.000
51.52000 121.000
51.54000 114.000
51.56000 129.000
51.58000 128.000
51.60000 111.000
51.62000 101.000
51.64000 121.000
51.66000 122.000
51.68000 132.000
51.70000 129.000
51.72000 144.000
51.74000 123.000
51.76000 137.000
51.78000 133.000
51.80000 147.000
51.82000 128.000
51.84000 133.000
51.86000 119.000
51.88000 136.000
51.90000 143.000
51.92000 129.000
51.94000 152.000
51.96000 130.000
51.98000 131.000
52.00000 136.000
52.02000 147.000
52.04000 142.000
52.06000 152.000
52.08000 193.000
52.10000 161.000
52.12000 187.000
52.14000 197.000
52.16000 210.000
52.18000 251.000
52.20000 277.000
52.22000 283.000
52.24000 315.000
52.26000 318.000
52.28000 329.000
52.30000 368.000
52.32000 350.000
52.34000 374.000
52.36000 344.000
52.38000 343.000
52.40000 341.000
52.42000 322.000
52.44000 298.000
52.46000 273.000
52.48000 271.000
52.50000 280.000
52.52000 250.000
52.54000 208.000
52.56000 237.000
52.58000 186.000
52.60000 192.000
52.62000 172.000
52.64000 167.000
52.66000 163.000
52.68000 151.000
52.70000 153.000
52.72000 127.000
52.74000 130.000
52.76000 119.000
52.78000 116.000
52.80000 136.000
52.82000 122.000
52.84000 114.000
52.86000 137.000
52.88000 125.000
52.90000 119.000
52.92000 119.000
52.94000 94.000
52.96000 100.000
52.98000 110.000
53.00000 124.000
53.02000 112.000
53.04000 113.000
53.06000 106.000
53.08000 101.000
53.10000 105.000
53.12000 97.000
53.14000 103.000
53.16000 119.000
53.18000 95.000
53.20000 105.000
53.22000 86.000
53.24000 101.000
53.26000 101.000
53.28000 109.000
53.30000 107.000
53.32000 96.000
53.34000 90.000
53.36000 106.000
53.38000 97.000
53.40000 116.000
53.42000 84.000
53.44000 103.000
53.46000 117.000
53.48000 103.000
53.50000 95.000
53.52000 111.000
53.54000 102.000
53.56000 101.000
53.58000 91.000
53.60000 95.000
53.62000 92.000
53.64000 103.000
53.66000 95.000
53.68000 94.000
53.70000 90.000
53.72000 108.000
53.74000 93.000
53.76000 118.000
53.78000 119.000
53.80000 100.000
53.82000 89.000
53.84000 97.000
53.86000 120.000
53.88000 111.000
53.90000 106.000
53.92000 99.000
53.94000 91.000
53.96000 89.000
53.98000 97.000
54.00000 91.000
54.02000 93.000
54.04000 118.000
54.06000 102.000
54.08000 102.000
54.10000 120.000
54.12000 116.000
54.14000 82.000
54.16000 112.000
54.18000 96.000
54.20000 114.000
54.22000 110.000
54.24000 117.000
54.26000 112.000
54.28000 112.000
54.30000 115.000
54.32000 102.000
54.34000 135.000
54.36000 126.000
54.38000 150.000
54.40000 198.000
54.42000 179.000
54.44000 145.000
54.46000 166.000
54.48000 160.000
54.50000 166.000
54.52000 157.000
54.54000 158.000
54.56000 160.000
54.58000 142.000
54.60000 159.000
54.62000 138.000
54.64000 130.000
54.66000 133.000
54.68000 125.000
54.70000 99.000
54.72000 105.000
54.74000 100.000
54.76000 123.000
54.78000 97.000
54.80000 119.000
54.82000 103.000
54.84000 121.000
54.86000 91.000
54.88000 87.000
54.90000 102.000
54.92000 100.000
54.94000 101.000
54.96000 103.000
54.98000 82.000
55.00000 103.000
55.02000 111.000
55.04000 97.000
55.06000 98.000
55.08000 105.000
55.10000 91.000
55.12000 104.000
55.14000 94.000
55.16000 114.000
55.18000 86.000
55.20000 99.000
55.22000 109.000
55.24000 108.000
55.26000 110.000
55.28000 83.000
55.30000 78.000
55.32000 97.000
55.34000 110.000
55.36000 102.000
55.38000 91.000
55.40000 96.000
55.42000 109.000
55.44000 93.000
55.46000 104.000
55.48000 100.000
55.50000 94.000
55.52000 112.000
55.54000 108.000
55.56000 80.000
55.58000 100.000
55.60000 82.000
55.62000 95.000
55.64000 89.000
55.66000 101.000
55.68000 79.000
55.70000 92.000
55.72000 107.000
55.74000 92.000
55.76000 70.000
55.78000 97.000
55.80000 99.000
55.82000 105.000
55.84000 102.000
55.86000 87.000
55.88000 103.000
55.90000 86.000
55.92000 76.000
55.94000 95.000
55.96000 83.000
55.98000 79.000
56.00000 95.000
56.02000 84.000
56.04000 91.000
56.06000 84.000
56.08000 87.000
56.10000 90.000
56.12000 75.000
56.14000 90.000
56.16000 95.000
56.18000 96.000
56.20000 83.000
56.22000 90.000
56.24000 79.000
56.26000 94.000
56.28000 88.000
56.30000 81.000
56.32000 101.000
56.34000 93.000
56.36000 82.000
56.38000 95.000
56.40000 96.000
56.42000 95.000
56.44000 84.000
56.46000 86.000
56.48000 73.000
56.50000 95.000
56.52000 85.000
56.54000 88.000
56.56000 89.000
56.58000 94.000
56.60000 93.000
56.62000 90.000
56.64000 56.000
56.66000 97.000
56.68000 96.000
56.70000 76.000
56.72000 95.000
56.74000 74.000
56.76000 88.000
56.78000 95.000
56.80000 88.000
56.82000 101.000
56.84000 102.000
56.86000 88.000
56.88000 83.000
56.90000 116.000
56.92000 96.000
56.94000 87.000
56.96000 80.000
56.98000 100.000
57.00000 104.000
57.02000 89.000
57.04000 99.000
57.06000 96.000
57.08000 79.000
57.10000 77.000
57.12000 95.000
57.14000 93.000
57.16000 86.000
57.18000 89.000
57.20000 98.000
57.22000 81.000
57.24000 93.000
57.26000 89.000
57.28000 93.000
57.30000 91.000
57.32000 87.000
57.34000 102.000
57.36000 87.000
57.38000 107.000
57.40000 77.000
57.42000 100.000
57.44000 91.000
57.46000 95.000
57.48000 96.000
57.50000 93.000
57.52000 88.000
57.54000 90.000
57.56000 106.000
57.58000 92.000
57.60000 81.000
57.62000 97.000
57.64000 86.000
57.66000 82.000
57.68000 107.000
57.70000 99.000
57.72000 84.000
57.74000 102.000
57.76000 110.000
57.78000 105.000
57.80000 102.000
57.82000 88.000
57.84000 105.000
57.86000 85.000
57.88000 92.000
57.90000 81.000
57.92000 85.000
57.94000 100.000
57.96000 100.000
57.98000 92.000
58.00000 113.000
58.02000 111.000
58.04000 112.000
58.06000 92.000
58.08000 99.000
58.10000 109.000
58.12000 116.000
58.14000 116.000
58.16000 90.000
58.18000 111.000
58.20000 92.000
58.22000 100.000
58.24000 108.000
58.26000 114.000
58.28000 109.000
58.30000 121.000
58.32000 112.000
58.34000 125.000
58.36000 113.000
58.38000 164.000
58.40000 135.000
58.42000 154.000
58.44000 146.000
58.46000 140.000
58.48000 157.000
58.50000 178.000
58.52000 178.000
58.54000 189.000
58.56000 186.000
58.58000 169.000
58.60000 163.000
58.62000 186.000
58.64000 169.000
58.66000 166.000
58.68000 154.000
58.70000 160.000
58.72000 145.000
58.74000 138.000
58.76000 131.000
58.78000 150.000
58.80000 130.000
58.82000 128.000
58.84000 127.000
58.86000 85.000
58.88000 116.000
58.90000 113.000
58.92000 114.000
58.94000 115.000
58.96000 94.000
58.98000 112.000
59.00000 104.000
59.02000 100.000
59.04000 122.000
59.06000 80.000
59.08000 94.000
59.10000 117.000
59.12000 104.000
59.14000 102.000
59.16000 95.000
59.18000 109.000
59.20000 102.000
59.22000 111.000
59.24000 98.000
59.26000 95.000
59.28000 82.000
59.30000 106.000
59.32000 105.000
59.34000 108.000
59.36000 112.000
59.38000 89.000
59.40000 100.000
59.42000 103.000
59.44000 96.000
59.46000 85.000
59.48000 81.000
59.50000 106.000
59.52000 96.000
59.54000 87.000
59.56000 87.000
59.58000 108.000
59.60000 83.000
59.62000 118.000
59.64000 104.000
59.66000 105.000
59.68000 108.000
59.70000 108.000
59.72000 97.000
59.74000 96.000
59.76000 98.000
59.78000 116.000
59.80000 96.000
59.82000 94.000
59.84000 110.000
59.86000 100.000
59.88000 114.000
59.90000 99.000
59.92000 92.000
59.94000 103.000
59.96000 117.000
