5.00000 810.000
5.02000 812.000
5.04000 803.000
5.06000 822.000
5.08000 778.000
5.10000 803.000
5.12000 797.000
5.14000 812.000
5.16000 813.000
5.18000 801.000
5.20000 799.000
5.22000 750.000
5.24000 805.000
5.26000 766.000
5.28000 774.000
5.30000 735.000
5.32000 816.000
5.34000 729.000
5.36000 737.000
5.38000 764.000
5.40000 732.000
5.42000 747.000
5.44000 757.000
5.46000 732.000
5.48000 705.000
5.50000 780.000
5.52000 734.000
5.54000 764.000
5.56000 736.000
5.58000 733.000
5.60000 748.000
5.62000 704.000
5.64000 742.000
5.66000 794.000
5.68000 718.000
5.70000 681.000
5.72000 673.000
5.74000 711.000
5.76000 709.000
5.78000 743.000
5.80000 686.000
5.82000 703.000
5.84000 711.000
5.86000 704.000
5.88000 721.000
5.90000 694.000
5.92000 619.000
5.94000 690.000
5.96000 712.000
5.98000 671.000
6.00000 716.000
6.02000 676.000
6.04000 670.000
6.06000 681.000
6.08000 657.000
6.10000 685.000
6.12000 719.000
6.14000 649.000
6.16000 666.000
6.18000 657.000
6.20000 667.000
6.22000 632.000
6.24000 695.000
6.26000 659.000
6.28000 602.000
6.30000 618.000
6.32000 666.000
6.34000 651.000
6.36000 595.000
6.38000 635.000
6.40000 614.000
6.42000 645.000
6.44000 612.000
6.46000 602.000
6.48000 657.000
6.50000 609.000
6.52000 622.000
6.54000 617.000
6.56000 598.000
6.58000 582.000
6.60000 650.000
6.62000 616.000
6.64000 612.000
6.66000 573.000
6.68000 608.000
6.70000 615.000
6.72000 535.000
6.74000 634.000
6.76000 582.000
6.78000 586.000
6.80000 580.000
6.82000 584.000
6.84000 589.000
6.86000 571.000
6.88000 584.000
6.90000 614.000
6.92000 562.000
6.94000 583.000
6.96000 542.000
6.98000 558.000
7.00000 544.000
7.02000 557.000
7.04000 594.000
7.06000 597.000
7.08000 554.000
7.10000 558.000
7.12000 554.000
7.14000 598.000
7.16000 534.000
7.18000 548.000
7.20000 563.000
7.22000 530.000
7.24000 550.000
7.26000 540.000
7.28000 534.000
7.30000 550.000
7.32000 561.000
7.34000 565.000
7.36000 544.000
7.38000 548.000
7.40000 510.000
7.42000 550.000
7.44000 541.000
7.46000 566.000
7.48000 508.000
7.50000 514.000
7.52000 528.000
7.54000 500.000
7.56000 539.000
7.58000 537.000
7.60000 492.000
7.62000 512.000
7.64000 553.000
7.66000 503.000
7.68000 504.000
7.70000 494.000
7.72000 519.000
7.74000 462.000
7.76000 509.000
7.78000 539.000
7.80000 516.000
7.82000 498.000
7.84000 522.000
7.86000 478.000
7.88000 494.000
7.90000 479.000
7.92000 492.000
7.94000 497.000
7.96000 503.000
7.98000 499.000
8.00000 505.000
8.02000 455.000
8.04000 501.000
8.06000 497.000
8.08000 474.000
8.10000 494.000
8.12000 507.000
8.14000 505.000
8.16000 494.000
8.18000 488.000
8.20000 462.000
8.22000 496.000
8.24000 474.000
8.26000 489.000
8.28000 472.000
8.30000 499.000
8.32000 494.000
8.34000 489.000
8.36000 481.000
8.38000 471.000
8.40000 488.000
8.42000 484.000
8.44000 479.000
8.46000 480.000
8.48000 456.000
8.50000 478.000
8.52000 433.000
8.54000 463.000
8.56000 483.000
8.58000 453.000
8.60000 478.000
8.62000 458.000
8.64000 461.000
8.66000 466.000
8.68000 433.000
8.70000 479.000
8.72000 474.000
8.74000 470.000
8.76000 467.000
8.78000 483.000
8.80000 440.000
8.82000 485.000
8.84000 473.000
8.86000 416.000
8.88000 431.000
8.90000 452.000
8.92000 429.000
8.94000 432.000
8.96000 473.000
8.98000 450.000
9.00000 440.000
9.02000 410.000
9.04000 414.000
9.06000 438.000
9.08000 422.000
9.10000 392.000
9.12000 445.000
9.14000 447.000
9.16000 467.000
9.18000 430.000
9.20000 437.000
9.22000 380.000
9.24000 396.000
9.26000 432.000
9.28000 402.000
9.30000 426.000
9.32000 422.000
9.34000 421.000
9.36000 400.000
9.38000 413.000
9.40000 406.000
9.42000 401.000
9.44000 433.000
9.46000 414.000
9.48000 413.000
9.50000 414.000
9.52000 416.000
9.54000 421.000
9.56000 410.000
9.58000 421.000
9.60000 399.000
9.62000 439.000
9.64000 390.000
9.66000 415.000
9.68000 388.000
9.70000 390.000
9.72000 390.000
9.74000 438.000
9.76000 439.000
9.78000 414.000
9.80000 388.000
9.82000 397.000
9.84000 407.000
9.86000 433.000
9.88000 384.000
9.90000 424.000
9.92000 398.000
9.94000 398.000
9.96000 401.000
9.98000 402.000
10.00000 382.000
10.02000 389.000
10.04000 399.000
10.06000 374.000
10.08000 390.000
10.10000 393.000
10.12000 359.000
10.14000 399.000
10.16000 398.000
10.18000 371.000
10.20000 387.000
10.22000 367.000
10.24000 404.000
10.26000 338.000
10.28000 319.000
10.30000 399.000
10.32000 391.000
10.34000 371.000
10.36000 378.000
10.38000 365.000
10.40000 352.000
10.42000 382.000
10.44000 322.000
10.46000 378.000
10.48000 358.000
10.50000 375.000
10.52000 355.000
10.54000 354.000
10.56000 348.000
10.58000 364.000
10.60000 378.000
10.62000 367.000
10.64000 343.000
10.66000 343.000
10.68000 359.000
10.70000 348.000
10.72000 337.000
10.74000 378.000
10.76000 342.000
10.78000 319.000
10.80000 349.000
10.82000 353.000
10.84000 368.000
10.86000 381.000
10.88000 318.000
10.90000 373.000
10.92000 316.000
10.94000 357.000
10.96000 323.000
10.98000 360.000
11.00000 360.000
11.02000 365.000
11.04000 373.000
11.06000 324.000
11.08000 336.000
11.10000 326.000
11.12000 345.000
11.14000 338.000
11.16000 335.000
11.18000 343.000
11.20000 323.000
11.22000 349.000
11.24000 323.000
11.26000 329.000
11.28000 339.000
11.30000 336.000
11.32000 336.000
11.34000 316.000
11.36000 339.000
11.38000 337.000
11.40000 325.000
11.42000 337.000
11.44000 311.000
11.46000 329.000
11.48000 315.000
11.50000 306.000
11.52000 322.000
11.54000 336.000
11.56000 326.000
11.58000 320.000
11.60000 339.000
11.62000 345.000
11.64000 321.000
11.66000 316.000
11.68000 322.000
11.70000 341.000
11.72000 294.000
11.74000 345.000
11.76000 345.000
11.78000 362.000
11.80000 315.000
11.82000 319.000
11.84000 324.000
11.86000 327.000
11.88000 325.000
11.90000 319.000
11.92000 304.000
11.94000 326.000
11.96000 283.000
11.98000 307.000
12.00000 335.000
12.02000 321.000
12.04000 310.000
12.06000 313.000
12.08000 292.000
12.10000 300.000
12.12000 305.000
12.14000 288.000
12.16000 322.000
12.18000 311.000
12.20000 348.000
12.22000 326.000
12.24000 322.000
12.26000 322.000
12.28000 300.000
12.30000 316.000
12.32000 319.000
12.34000 315.000
12.36000 281.000
12.38000 312.000
12.40000 323.000
12.42000 342.000
12.44000 288.000
12.46000 334.000
12.48000 330.000
12.50000 307.000
12.52000 299.000
12.54000 322.000
12.56000 321.000
12.58000 314.000
12.60000 322.000
12.62000 303.000
12.64000 330.000
12.66000 301.000
12.68000 347.000
12.70000 332.000
12.72000 361.000
12.74000 340.000
12.76000 371.000
12.78000 319.000
12.80000 320.000
12.82000 345.000
12.84000 337.000
12.86000 325.000
12.88000 323.000
12.90000 332.000
12.92000 304.000
12.94000 328.000
12.96000 354.000
12.98000 343.000
13.00000 331.000
13.02000 337.000
13.04000 320.000
13.06000 347.000
13.08000 355.000
13.10000 340.000
13.12000 357.000
13.14000 359.000
13.16000 362.000
13.18000 369.000
13.20000 401.000
13.22000 403.000
13.24000 380.000
13.26000 435.000
13.28000 420.000
13.30000 447.000
13.32000 479.000
13.34000 470.000
13.36000 532.000
13.38000 537.000
13.40000 557.000
13.42000 568.000
13.44000 629.000
13.46000 622.000
13.48000 617.000
13.50000 702.000
13.52000 675.000
13.54000 705.000
13.56000 734.000
13.58000 804.000
13.60000 844.000
13.62000 834.000
13.64000 896.000
13.66000 923.000
13.68000 1067.000
13.70000 1139.000
13.72000 1242.000
13.74000 1372.000
13.76000 1516.000
13.78000 1632.000
13.80000 1773.000
13.82000 1906.000
13.84000 2207.000
13.86000 2402.000
13.88000 2735.000
13.90000 3054.000
13.92000 3560.000
13.94000 3935.000
13.96000 4634.000
13.98000 5362.000
14.00000 6107.000
14.02000 6957.000
14.04000 7859.000
14.06000 8407.000
14.08000 8332.000
14.10000 7604.000
14.12000 6547.000
14.14000 5174.000
14.16000 3997.000
14.18000 3084.000
14.20000 2413.000
14.22000 1785.000
14.24000 1328.000
14.26000 1117.000
14.28000 913.000
14.30000 740.000
14.32000 643.000
14.34000 589.000
14.36000 521.000
14.38000 408.000
14.40000 421.000
14.42000 417.000
14.44000 390.000
14.46000 336.000
14.48000 356.000
14.50000 309.000
14.52000 337.000
14.54000 313.000
14.56000 296.000
14.58000 304.000
14.60000 286.000
14.62000 280.000
14.64000 288.000
14.66000 267.000
14.68000 296.000
14.70000 300.000
14.72000 294.000
14.74000 262.000
14.76000 262.000
14.78000 306.000
14.80000 301.000
14.82000 259.000
14.84000 288.000
14.86000 267.000
14.88000 246.000
14.90000 263.000
14.92000 242.000
14.94000 263.000
14.96000 248.000
14.98000 261.000
15.00000 237.000
15.02000 268.000
15.04000 223.000
15.06000 275.000
15.08000 220.000
15.10000 268.000
15.12000 256.000
15.14000 257.000
15.16000 236.000
15.18000 249.000
15.20000 257.000
15.22000 279.000
15.24000 241.000
15.26000 250.000
15.28000 245.000
15.30000 256.000
15.32000 222.000
15.34000 282.000
15.36000 240.000
15.38000 224.000
15.40000 222.000
15.42000 249.000
15.44000 276.000
15.46000 261.000
15.48000 248.000
15.50000 251.000
15.52000 239.000
15.54000 214.000
15.56000 239.000
15.58000 250.000
15.60000 225.000
15.62000 250.000
15.64000 224.000
15.66000 224.000
15.68000 242.000
15.70000 228.000
15.72000 247.000
15.74000 211.000
15.76000 236.000
15.78000 213.000
15.80000 221.000
15.82000 214.000
15.84000 234.000
15.86000 220.000
15.88000 227.000
15.90000 260.000
15.92000 242.000
15.94000 235.000
15.96000 224.000
15.98000 244.000
16.00000 248.000
16.02000 228.000
16.04000 223.000
16.06000 218.000
16.08000 204.000
16.10000 242.000
16.12000 211.000
16.14000 223.000
16.16000 225.000
16.18000 218.000
16.20000 230.000
16.22000 234.000
16.24000 221.000
16.26000 224.000
16.28000 227.000
16.30000 253.000
16.32000 251.000
16.34000 254.000
16.36000 231.000
16.38000 215.000
16.40000 219.000
16.42000 247.000
16.44000 234.000
16.46000 241.000
16.48000 220.000
16.50000 215.000
16.52000 233.000
16.54000 227.000
16.56000 232.000
16.58000 266.000
16.60000 258.000
16.62000 259.000
16.64000 210.000
16.66000 199.000
16.68000 230.000
16.70000 264.000
16.72000 232.000
16.74000 210.000
16.76000 226.000
16.78000 207.000
16.80000 260.000
16.82000 216.000
16.84000 206.000
16.86000 243.000
16.88000 210.000
16.90000 239.000
16.92000 216.000
16.94000 229.000
16.96000 218.000
16.98000 221.000
17.00000 197.000
17.02000 222.000
17.04000 206.000
17.06000 196.000
17.08000 230.000
17.10000 231.000
17.12000 202.000
17.14000 219.000
17.16000 225.000
17.18000 197.000
17.20000 250.000
17.22000 202.000
17.24000 206.000
17.26000 215.000
17.28000 223.000
17.30000 211.000
17.32000 203.000
17.34000 210.000
17.36000 227.000
17.38000 187.000
17.40000 219.000
17.42000 229.000
17.44000 217.000
17.46000 244.000
17.48000 219.000
17.50000 216.000
17.52000 208.000
17.54000 204.000
17.56000 233.000
17.58000 232.000
17.60000 196.000
17.62000 205.000
17.64000 206.000
17.66000 249.000
17.68000 218.000
17.70000 232.000
17.72000 212.000
17.74000 217.000
17.76000 231.000
17.78000 225.000
17.80000 245.000
17.82000 214.000
17.84000 216.000
17.86000 225.000
17.88000 231.000
17.90000 224.000
17.92000 214.000
17.94000 201.000
17.96000 198.000
17.98000 232.000
18.00000 224.000
18.02000 202.000
18.04000 226.000
18.06000 218.000
18.08000 223.000
18.10000 201.000
18.12000 212.000
18.14000 217.000
18.16000 181.000
18.18000 248.000
18.20000 198.000
18.22000 209.000
18.24000 207.000
18.26000 202.000
18.28000 195.000
18.30000 224.000
18.32000 201.000
18.34000 214.000
18.36000 226.000
18.38000 216.000
18.40000 201.000
18.42000 215.000
18.44000 196.000
18.46000 238.000
18.48000 200.000
18.50000 208.000
18.52000 197.000
18.54000 214.000
18.56000 219.000
18.58000 201.000
18.60000 217.000
18.62000 219.000
18.64000 229.000
18.66000 222.000
18.68000 212.000
18.70000 221.000
18.72000 236.000
18.74000 213.000
18.76000 209.000
18.78000 217.000
18.80000 214.000
18.82000 211.000
18.84000 214.000
18.86000 219.000
18.88000 188.000
18.90000 218.000
18.92000 214.000
18.94000 225.000
18.96000 241.000
18.98000 242.000
19.00000 235.000
19.02000 198.000
19.04000 226.000
19.06000 212.000
19.08000 225.000
19.10000 236.000
19.12000 224.000
19.14000 198.000
19.16000 198.000
19.18000 233.000
19.20000 201.000
19.22000 225.000
19.24000 211.000
19.26000 213.000
19.28000 241.000
19.30000 221.000
19.32000 258.000
19.34000 234.000
19.36000 202.000
19.38000 225.000
19.40000 197.000
19.42000 238.000
19.44000 237.000
19.46000 255.000
19.48000 236.000
19.50000 254.000
19.52000 256.000
19.54000 271.000
19.56000 238.000
19.58000 313.000
19.60000 308.000
19.62000 307.000
19.64000 290.000
19.66000 326.000
19.68000 324.000
19.70000 341.000
19.72000 362.000
19.74000 388.000
19.76000 379.000
19.78000 460.000
19.80000 502.000
19.82000 534.000
19.84000 591.000
19.86000 653.000
19.88000 664.000
19.90000 787.000
19.92000 813.000
19.94000 852.000
19.96000 797.000
19.98000 771.000
20.00000 675.000
20.02000 599.000
20.04000 524.000
20.06000 474.000
20.08000 345.000
20.10000 318.000
20.12000 303.000
20.14000 279.000
20.16000 266.000
20.18000 271.000
20.20000 246.000
20.22000 219.000
20.24000 238.000
20.26000 225.000
20.28000 191.000
20.30000 226.000
20.32000 210.000
20.34000 227.000
20.36000 222.000
20.38000 209.000
20.40000 197.000
20.42000 214.000
20.44000 178.000
20.46000 211.000
20.48000 223.000
20.50000 197.000
20.52000 233.000
20.54000 224.000
20.56000 228.000
20.58000 225.000
20.60000 245.000
20.62000 190.000
20.64000 225.000
20.66000 225.000
20.68000 215.000
20.70000 223.000
20.72000 203.000
20.74000 238.000
20.76000 199.000
20.78000 225.000
20.80000 213.000
20.82000 220.000
20.84000 228.000
20.86000 238.000
20.88000 219.000
20.90000 240.000
20.92000 228.000
20.94000 213.000
20.96000 216.000
20.98000 206.000
21.00000 209.000
21.02000 216.000
21.04000 215.000
21.06000 211.000
21.08000 227.000
21.10000 228.000
21.12000 203.000
21.14000 232.000
21.16000 217.000
21.18000 219.000
21.20000 224.000
21.22000 226.000
21.24000 213.000
21.26000 233.000
21.28000 216.000
21.30000 226.000
21.32000 209.000
21.34000 214.000
21.36000 220.000
21.38000 214.000
21.40000 226.000
21.42000 234.000
21.44000 245.000
21.46000 211.000
21.48000 219.000
21.50000 205.000
21.52000 229.000
21.54000 222.000
21.56000 207.000
21.58000 217.000
21.60000 195.000
21.62000 218.000
21.64000 230.000
21.66000 231.000
21.68000 202.000
21.70000 230.000
21.72000 227.000
21.74000 227.000
21.76000 247.000
21.78000 243.000
21.80000 239.000
21.82000 251.000
21.84000 261.000
21.86000 258.000
21.88000 230.000
21.90000 233.000
21.92000 239.000
21.94000 224.000
21.96000 218.000
21.98000 249.000
22.00000 235.000
22.02000 219.000
22.04000 261.000
22.06000 240.000
22.08000 260.000
22.10000 222.000
22.12000 250.000
22.14000 236.000
22.16000 227.000
22.18000 229.000
22.20000 253.000
22.22000 264.000
22.24000 243.000
22.26000 243.000
22.28000 232.000
22.30000 249.000
22.32000 254.000
22.34000 266.000
22.36000 232.000
22.38000 244.000
22.40000 254.000
22.42000 235.000
22.44000 251.000
22.46000 222.000
22.48000 242.000
22.50000 231.000
22.52000 254.000
22.54000 265.000
22.56000 243.000
22.58000 245.000
22.60000 236.000
22.62000 238.000
22.64000 248.000
22.66000 265.000
22.68000 261.000
22.70000 259.000
22.72000 248.000
22.74000 238.000
22.76000 234.000
22.78000 237.000
22.80000 244.000
22.82000 258.000
22.84000 251.000
22.86000 280.000
22.88000 237.000
22.90000 249.000
22.92000 247.000
22.94000 241.000
22.96000 240.000
22.98000 226.000
23.00000 237.000
23.02000 240.000
23.04000 238.000
23.06000 270.000
23.08000 238.000
23.10000 232.000
23.12000 244.000
23.14000 243.000
23.16000 238.000
23.18000 276.000
23.20000 233.000
23.22000 200.000
23.24000 239.000
23.26000 238.000
23.28000 273.000
23.30000 278.000
23.32000 242.000
23.34000 251.000
23.36000 238.000
23.38000 221.000
23.40000 263.000
23.42000 230.000
23.44000 229.000
23.46000 249.000
23.48000 265.000
23.50000 247.000
23.52000 255.000
23.54000 247.000
23.56000 253.000
23.58000 261.000
23.60000 224.000
23.62000 273.000
23.64000 243.000
23.66000 212.000
23.68000 248.000
23.70000 233.000
23.72000 257.000
23.74000 251.000
23.76000 232.000
23.78000 237.000
23.80000 262.000
23.82000 222.000
23.84000 261.000
23.86000 254.000
23.88000 265.000
23.90000 219.000
23.92000 219.000
23.94000 267.000
23.96000 272.000
23.98000 278.000
24.00000 243.000
24.02000 276.000
24.04000 277.000
24.06000 263.000
24.08000 278.000
24.10000 283.000
24.12000 305.000
24.14000 287.000
24.16000 289.000
24.18000 319.000
24.20000 365.000
24.22000 361.000
24.24000 386.000
24.26000 400.000
24.28000 437.000
24.30000 491.000
24.32000 560.000
24.34000 603.000
24.36000 672.000
24.38000 723.000
24.40000 852.000
24.42000 918.000
24.44000 995.000
24.46000 1052.000
24.48000 1134.000
24.50000 1089.000
24.52000 1039.000
24.54000 975.000
24.56000 817.000
24.58000 679.000
24.60000 585.000
24.62000 489.000
24.64000 438.000
24.66000 408.000
24.68000 319.000
24.70000 337.000
24.72000 278.000
24.74000 302.000
24.76000 286.000
24.78000 286.000
24.80000 274.000
24.82000 262.000
24.84000 289.000
24.86000 275.000
24.88000 262.000
24.90000 264.000
24.92000 259.000
24.94000 259.000
24.96000 270.000
24.98000 241.000
25.00000 238.000
25.02000 255.000
25.04000 244.000
25.06000 242.000
25.08000 244.000
25.10000 243.000
25.12000 229.000
25.14000 270.000
25.16000 271.000
25.18000 260.000
25.20000 280.000
25.22000 247.000
25.24000 242.000
25.26000 282.000
25.28000 292.000
25.30000 267.000
25.32000 250.000
25.34000 281.000
25.36000 258.000
25.38000 246.000
25.40000 236.000
25.42000 257.000
25.44000 259.000
25.46000 303.000
25.48000 275.000
25.50000 262.000
25.52000 281.000
25.54000 292.000
25.56000 283.000
25.58000 268.000
25.60000 284.000
25.62000 268.000
25.64000 243.000
25.66000 254.000
25.68000 274.000
25.70000 266.000
25.72000 263.000
25.74000 282.000
25.76000 253.000
25.78000 290.000
25.80000 250.000
25.82000 267.000
25.84000 242.000
25.86000 262.000
25.88000 270.000
25.90000 282.000
25.92000 284.000
25.94000 259.000
25.96000 270.000
25.98000 264.000
26.00000 264.000
26.02000 242.000
26.04000 254.000
26.06000 270.000
26.08000 252.000
26.10000 256.000
26.12000 260.000
26.14000 262.000
26.16000 256.000
26.18000 303.000
26.20000 276.000
26.22000 256.000
26.24000 278.000
26.26000 279.000
26.28000 269.000
26.30000 248.000
26.32000 281.000
26.34000 285.000
26.36000 295.000
26.38000 266.000
26.40000 304.000
26.42000 273.000
26.44000 322.000
26.46000 263.000
26.48000 297.000
26.50000 312.000
26.52000 330.000
26.54000 282.000
26.56000 284.000
26.58000 284.000
26.60000 307.000
26.62000 300.000
26.64000 283.000
26.66000 316.000
26.68000 251.000
26.70000 254.000
26.72000 298.000
26.74000 264.000
26.76000 302.000
26.78000 288.000
26.80000 278.000
26.82000 281.000
26.84000 297.000
26.86000 288.000
26.88000 281.000
26.90000 301.000
26.92000 337.000
26.94000 318.000
26.96000 310.000
26.98000 318.000
27.00000 313.000
27.02000 304.000
27.04000 306.000
27.06000 345.000
27.08000 328.000
27.10000 335.000
27.12000 346.000
27.14000 337.000
27.16000 327.000
27.18000 331.000
27.20000 306.000
27.22000 306.000
27.24000 316.000
27.26000 319.000
27.28000 310.000
27.30000 283.000
27.32000 287.000
27.34000 282.000
27.36000 288.000
27.38000 308.000
27.40000 298.000
27.42000 313.000
27.44000 294.000
27.46000 295.000
27.48000 293.000
27.50000 266.000
27.52000 311.000
27.54000 301.000
27.56000 262.000
27.58000 291.000
27.60000 345.000
27.62000 301.000
27.64000 297.000
27.66000 310.000
27.68000 324.000
27.70000 293.000
27.72000 342.000
27.74000 314.000
27.76000 346.000
27.78000 316.000
27.80000 346.000
27.82000 346.000
27.84000 366.000
27.86000 386.000
27.88000 385.000
27.90000 396.000
27.92000 396.000
27.94000 472.000
27.96000 471.000
27.98000 550.000
28.00000 651.000
28.02000 685.000
28.04000 779.000
28.06000 865.000
28.08000 1007.000
28.10000 1155.000
28.12000 1255.000
28.14000 1450.000
28.16000 1724.000
28.18000 1978.000
28.20000 2447.000
28.22000 2758.000
28.24000 3278.000
28.26000 3676.000
28.28000 4333.000
28.30000 4711.000
28.32000 5439.000
28.34000 5394.000
28.36000 5225.000
28.38000 4767.000
28.40000 4344.000
28.42000 3688.000
28.44000 3099.000
28.46000 2473.000
28.48000 2041.000
28.50000 1551.000
28.52000 1234.000
28.54000 991.000
28.56000 823.000
28.58000 678.000
28.60000 607.000
28.62000 533.000
28.64000 477.000
28.66000 434.000
28.68000 410.000
28.70000 348.000
28.72000 329.000
28.74000 330.000
28.76000 281.000
28.78000 311.000
28.80000 300.000
28.82000 316.000
28.84000 305.000
28.86000 309.000
28.88000 293.000
28.90000 311.000
28.92000 276.000
28.94000 274.000
28.96000 290.000
28.98000 249.000
29.00000 293.000
29.02000 272.000
29.04000 270.000
29.06000 255.000
29.08000 273.000
29.10000 253.000
29.12000 271.000
29.14000 248.000
29.16000 275.000
29.18000 263.000
29.20000 283.000
29.22000 255.000
29.24000 257.000
29.26000 231.000
29.28000 235.000
29.30000 281.000
29.32000 247.000
29.34000 255.000
29.36000 227.000
29.38000 234.000
29.40000 276.000
29.42000 232.000
29.44000 232.000
29.46000 241.000
29.48000 202.000
29.50000 253.000
29.52000 233.000
29.54000 271.000
29.56000 261.000
29.58000 245.000
29.60000 231.000
29.62000 241.000
29.64000 229.000
29.66000 262.000
29.68000 242.000
29.70000 255.000
29.72000 222.000
29.74000 230.000
29.76000 230.000
29.78000 220.000
29.80000 266.000
29.82000 237.000
29.84000 222.000
29.86000 236.000
29.88000 242.000
29.90000 244.000
29.92000 219.000
29.94000 252.000
29.96000 225.000
29.98000 234.000
30.00000 212.000
30.02000 236.000
30.04000 245.000
30.06000 225.000
30.08000 233.000
30.10000 219.000
30.12000 250.000
30.14000 212.000
30.16000 227.000
30.18000 218.000
30.20000 247.000
30.22000 236.000
30.24000 238.000
30.26000 251.000
30.28000 263.000
30.30000 230.000
30.32000 241.000
30.34000 264.000
30.36000 249.000
30.38000 285.000
30.40000 243.000
30.42000 247.000
30.44000 224.000
30.46000 240.000
30.48000 263.000
30.50000 233.000
30.52000 240.000
30.54000 250.000
30.56000 206.000
30.58000 227.000
30.60000 212.000
30.62000 254.000
30.64000 213.000
30.66000 257.000
30.68000 251.000
30.70000 255.000
30.72000 245.000
30.74000 241.000
30.76000 224.000
30.78000 248.000
30.80000 230.000
30.82000 219.000
30.84000 245.000
30.86000 230.000
30.88000 234.000
30.90000 265.000
30.92000 224.000
30.94000 240.000
30.96000 247.000
30.98000 228.000
31.00000 240.000
31.02000 230.000
31.04000 209.000
31.06000 221.000
31.08000 239.000
31.10000 248.000
31.12000 244.000
31.14000 234.000
31.16000 243.000
31.18000 240.000
31.20000 236.000
31.22000 267.000
31.24000 263.000
31.26000 247.000
31.28000 271.000
31.30000 268.000
31.32000 269.000
31.34000 294.000
31.36000 319.000
31.38000 343.000
31.40000 342.000
31.42000 361.000
31.44000 438.000
31.46000 484.000
31.48000 521.000
31.50000 582.000
31.52000 650.000
31.54000 731.000
31.56000 842.000
31.58000 967.000
31.60000 1094.000
31.62000 1313.000
31.64000 1506.000
31.66000 1726.000
31.68000 2125.000
31.70000 2396.000
31.72000 2769.000
31.74000 2967.000
31.76000 3093.000
31.78000 3084.000
31.80000 2731.000
31.82000 2551.000
31.84000 2323.000
31.86000 1956.000
31.88000 1613.000
31.90000 1338.000
31.92000 1093.000
31.94000 844.000
31.96000 687.000
31.98000 578.000
32.00000 487.000
32.02000 392.000
32.04000 384.000
32.06000 351.000
32.08000 307.000
32.10000 255.000
32.12000 266.000
32.14000 238.000
32.16000 242.000
32.18000 254.000
32.20000 246.000
32.22000 237.000
32.24000 227.000
32.26000 245.000
32.28000 216.000
32.30000 237.000
32.32000 235.000
32.34000 214.000
32.36000 239.000
32.38000 221.000
32.40000 205.000
32.42000 222.000
32.44000 224.000
32.46000 197.000
32.48000 200.000
32.50000 204.000
32.52000 222.000
32.54000 178.000
32.56000 208.000
32.58000 210.000
32.60000 198.000
32.62000 191.000
32.64000 205.000
32.66000 196.000
32.68000 204.000
32.70000 181.000
32.72000 190.000
32.74000 235.000
32.76000 218.000
32.78000 187.000
32.80000 200.000
32.82000 215.000
32.84000 204.000
32.86000 227.000
32.88000 191.000
32.90000 195.000
32.92000 207.000
32.94000 200.000
32.96000 164.000
32.98000 194.000
33.00000 199.000
33.02000 175.000
33.04000 190.000
33.06000 202.000
33.08000 189.000
33.10000 208.000
33.12000 182.000
33.14000 157.000
33.16000 190.000
33.18000 196.000
33.20000 169.000
33.22000 164.000
33.24000 162.000
33.26000 202.000
33.28000 153.000
33.30000 188.000
33.32000 173.000
33.34000 191.000
33.36000 181.000
33.38000 197.000
33.40000 192.000
33.42000 182.000
33.44000 206.000
33.46000 175.000
33.48000 174.000
33.50000 167.000
33.52000 178.000
33.54000 209.000
33.56000 185.000
33.58000 190.000
33.60000 165.000
33.62000 200.000
33.64000 183.000
33.66000 178.000
33.68000 183.000
33.70000 178.000
33.72000 170.000
33.74000 148.000
33.76000 163.000
33.78000 179.000
33.80000 160.000
33.82000 174.000
33.84000 176.000
33.86000 155.000
33.88000 156.000
33.90000 181.000
33.92000 159.000
33.94000 167.000
33.96000 165.000
33.98000 167.000
34.00000 168.000
34.02000 176.000
34.04000 169.000
34.06000 167.000
34.08000 180.000
34.10000 193.000
34.12000 192.000
34.14000 180.000
34.16000 178.000
34.18000 171.000
34.20000 154.000
34.22000 198.000
34.24000 171.000
34.26000 179.000
34.28000 168.000
34.30000 179.000
34.32000 159.000
34.34000 189.000
34.36000 186.000
34.38000 174.000
34.40000 186.000
34.42000 198.000
34.44000 172.000
34.46000 172.000
34.48000 177.000
34.50000 191.000
34.52000 189.000
34.54000 182.000
34.56000 215.000
34.58000 211.000
34.60000 206.000
34.62000 236.000
34.64000 241.000
34.66000 262.000
34.68000 289.000
34.70000 278.000
34.72000 299.000
34.74000 342.000
34.76000 382.000
34.78000 419.000
34.80000 484.000
34.82000 501.000
34.84000 615.000
34.86000 635.000
34.88000 668.000
34.90000 641.000
34.92000 612.000
34.94000 584.000
34.96000 535.000
34.98000 487.000
35.00000 442.000
35.02000 355.000
35.04000 348.000
35.06000 308.000
35.08000 272.000
35.10000 238.000
35.12000 214.000
35.14000 201.000
35.16000 202.000
35.18000 216.000
35.20000 175.000
35.22000 171.000
35.24000 159.000
35.26000 190.000
35.28000 149.000
35.30000 158.000
35.32000 181.000
35.34000 189.000
35.36000 164.000
35.38000 162.000
35.40000 178.000
35.42000 154.000
35.44000 170.000
35.46000 176.000
35.48000 153.000
35.50000 180.000
35.52000 170.000
35.54000 169.000
35.56000 155.000
35.58000 147.000
35.60000 143.000
35.62000 137.000
35.64000 163.000
35.66000 141.000
35.68000 152.000
35.70000 147.000
35.72000 162.000
35.74000 164.000
35.76000 150.000
35.78000 170.000
35.80000 165.000
35.82000 155.000
35.84000 162.000
35.86000 154.000
35.88000 151.000
35.90000 156.000
35.92000 152.000
35.94000 148.000
35.96000 150.000
35.98000 163.000
36.00000 174.000
36.02000 149.000
36.04000 142.000
36.06000 146.000
36.08000 146.000
36.10000 141.000
36.12000 162.000
36.14000 148.000
36.16000 159.000
36.18000 156.000
36.20000 169.000
36.22000 166.000
36.24000 161.000
36.26000 160.000
36.28000 146.000
36.30000 160.000
36.32000 140.000
36.34000 144.000
36.36000 169.000
36.38000 159.000
36.40000 163.000
36.42000 150.000
36.44000 164.000
36.46000 144.000
36.48000 168.000
36.50000 139.000
36.52000 123.000
36.54000 139.000
36.56000 152.000
36.58000 162.000
36.60000 140.000
36.62000 123.000
36.64000 158.000
36.66000 171.000
36.68000 149.000
36.70000 169.000
36.72000 171.000
36.74000 154.000
36.76000 184.000
36.78000 138.000
36.80000 141.000
36.82000 135.000
36.84000 142.000
36.86000 130.000
36.88000 109.000
36.90000 139.000
36.92000 140.000
36.94000 141.000
36.96000 140.000
36.98000 137.000
37.00000 133.000
37.02000 149.000
37.04000 121.000
37.06000 142.000
37.08000 146.000
37.10000 140.000
37.12000 134.000
37.14000 154.000
37.16000 145.000
37.18000 137.000
37.20000 148.000
37.22000 127.000
37.24000 119.000
37.26000 149.000
37.28000 144.000
37.30000 148.000
37.32000 141.000
37.34000 146.000
37.36000 172.000
37.38000 148.000
37.40000 127.000
37.42000 118.000
37.44000 146.000
37.46000 147.000
37.48000 136.000
37.50000 123.000
37.52000 139.000
37.54000 151.000
37.56000 134.000
37.58000 152.000
37.60000 131.000
37.62000 140.000
37.64000 124.000
37.66000 111.000
37.68000 130.000
37.70000 157.000
37.72000 153.000
37.74000 120.000
37.76000 122.000
37.78000 149.000
37.80000 133.000
37.82000 133.000
37.84000 137.000
37.86000 125.000
37.88000 153.000
37.90000 149.000
37.92000 132.000
37.94000 118.000
37.96000 129.000
37.98000 126.000
38.00000 137.000
38.02000 132.000
38.04000 150.000
38.06000 121.000
38.08000 120.000
38.10000 149.000
38.12000 124.000
38.14000 136.000
38.16000 135.000
38.18000 137.000
38.20000 138.000
38.22000 129.000
38.24000 130.000
38.26000 119.000
38.28000 139.000
38.30000 118.000
38.32000 137.000
38.34000 138.000
38.36000 131.000
38.38000 146.000
38.40000 122.000
38.42000 145.000
38.44000 132.000
38.46000 134.000
38.48000 134.000
38.50000 158.000
38.52000 151.000
38.54000 141.000
38.56000 136.000
38.58000 155.000
38.60000 156.000
38.62000 136.000
38.64000 178.000
38.66000 139.000
38.68000 148.000
38.70000 145.000
38.72000 150.000
38.74000 150.000
38.76000 145.000
38.78000 128.000
38.80000 158.000
38.82000 142.000
38.84000 137.000
38.86000 139.000
38.88000 130.000
38.90000 132.000
38.92000 138.000
38.94000 118.000
38.96000 141.000
38.98000 135.000
39.00000 134.000
39.02000 150.000
39.04000 150.000
39.06000 141.000
39.08000 134.000
39.10000 153.000
39.12000 138.000
39.14000 161.000
39.16000 155.000
39.18000 140.000
39.20000 136.000
39.22000 149.000
39.24000 145.000
39.26000 142.000
39.28000 155.000
39.30000 141.000
39.32000 149.000
39.34000 151.000
39.36000 142.000
39.38000 115.000
39.40000 128.000
39.42000 133.000
39.44000 146.000
39.46000 138.000
39.48000 152.000
39.50000 160.000
39.52000 144.000
39.54000 147.000
39.56000 143.000
39.58000 134.000
39.60000 152.000
39.62000 164.000
39.64000 129.000
39.66000 160.000
39.68000 153.000
39.70000 136.000
39.72000 148.000
39.74000 154.000
39.76000 118.000
39.78000 136.000
39.80000 150.000
39.82000 144.000
39.84000 157.000
39.86000 154.000
39.88000 145.000
39.90000 163.000
39.92000 164.000
39.94000 146.000
39.96000 163.000
39.98000 163.000
40.00000 180.000
40.02000 160.000
40.04000 140.000
40.06000 170.000
40.08000 176.000
40.10000 156.000
40.12000 169.000
40.14000 205.000
40.16000 208.000
40.18000 228.000
40.20000 245.000
40.22000 287.000
40.24000 299.000
40.26000 363.000
40.28000 396.000
40.30000 461.000
40.32000 512.000
40.34000 599.000
40.36000 732.000
40.38000 828.000
40.40000 982.000
40.42000 1182.000
40.44000 1358.000
40.46000 1496.000
40.48000 1700.000
40.50000 1724.000
40.52000 1718.000
40.54000 1565.000
40.56000 1492.000
40.58000 1440.000
40.60000 1315.000
40.62000 1100.000
40.64000 980.000
40.66000 804.000
40.68000 659.000
40.70000 508.000
40.72000 443.000
40.74000 353.000
40.76000 327.000
40.78000 272.000
40.80000 300.000
40.82000 236.000
40.84000 216.000
40.86000 194.000
40.88000 179.000
40.90000 167.000
40.92000 160.000
40.94000 196.000
40.96000 184.000
40.98000 158.000
41.00000 182.000
41.02000 154.000
41.04000 183.000
41.06000 167.000
41.08000 137.000
41.10000 160.000
41.12000 148.000
41.14000 186.000
41.16000 173.000
41.18000 158.000
41.20000 168.000
41.22000 171.000
41.24000 154.000
41.26000 174.000
41.28000 157.000
41.30000 159.000
41.32000 162.000
41.34000 153.000
41.36000 163.000
41.38000 152.000
41.40000 155.000
41.42000 148.000
41.44000 157.000
41.46000 147.000
41.48000 156.000
41.50000 151.000
41.52000 145.000
41.54000 143.000
41.56000 160.000
41.58000 137.000
41.60000 143.000
41.62000 149.000
41.64000 138.000
41.66000 139.000
41.68000 139.000
41.70000 146.000
41.72000 158.000
41.74000 161.000
41.76000 155.000
41.78000 144.000
41.80000 150.000
41.82000 148.000
41.84000 159.000
41.86000 134.000
41.88000 140.000
41.90000 152.000
41.92000 137.000
41.94000 175.000
41.96000 131.000
41.98000 169.000
42.00000 146.000
42.02000 143.000
42.04000 140.000
42.06000 151.000
42.08000 140.000
42.10000 137.000
42.12000 141.000
42.14000 145.000
42.16000 143.000
42.18000 132.000
42.20000 138.000
42.22000 135.000
42.24000 161.000
42.26000 136.000
42.28000 151.000
42.30000 139.000
42.32000 134.000
42.34000 167.000
42.36000 150.000
42.38000 161.000
42.40000 161.000
42.42000 135.000
42.44000 134.000
42.46000 127.000
42.48000 144.000
42.50000 167.000
42.52000 150.000
42.54000 140.000
42.56000 145.000
42.58000 187.000
42.60000 154.000
42.62000 167.000
42.64000 167.000
42.66000 160.000
42.68000 165.000
42.70000 152.000
42.72000 168.000
42.74000 187.000
42.76000 199.000
42.78000 197.000
42.80000 220.000
42.82000 262.000
42.84000 263.000
42.86000 300.000
42.88000 328.000
42.90000 386.000
42.92000 436.000
42.94000 547.000
42.96000 647.000
42.98000 729.000
43.00000 836.000
43.02000 1012.000
43.04000 1102.000
43.06000 1221.000
43.08000 1173.000
43.10000 1134.000
43.12000 1094.000
43.14000 1018.000
43.16000 951.000
43.18000 803.000
43.20000 739.000
43.22000 644.000
43.24000 538.000
43.26000 489.000
43.28000 419.000
43.30000 321.000
43.32000 293.000
43.34000 254.000
43.36000 250.000
43.38000 207.000
43.40000 185.000
43.42000 164.000
43.44000 179.000
43.46000 154.000
43.48000 178.000
43.50000 155.000
43.52000 131.000
43.54000 143.000
43.56000 150.000
43.58000 126.000
43.60000 137.000
43.62000 146.000
43.64000 162.000
43.66000 128.000
43.68000 138.000
43.70000 138.000
43.72000 124.000
43.74000 136.000
43.76000 115.000
43.78000 140.000
43.80000 123.000
43.82000 131.000
43.84000 119.000
43.86000 150.000
43.88000 139.000
43.90000 133.000
43.92000 145.000
43.94000 141.000
43.96000 128.000
43.98000 118.000
44.00000 118.000
44.02000 129.000
44.04000 134.000
44.06000 127.000
44.08000 132.000
44.10000 134.000
44.12000 137.000
44.14000 135.000
44.16000 131.000
44.18000 140.000
44.20000 149.000
44.22000 129.000
44.24000 110.000
44.26000 124.000
44.28000 151.000
44.30000 119.000
44.32000 118.000
44.34000 124.000
44.36000 142.000
44.38000 141.000
44.40000 117.000
44.42000 122.000
44.44000 137.000
44.46000 126.000
44.48000 123.000
44.50000 129.000
44.52000 119.000
44.54000 149.000
44.56000 127.000
44.58000 134.000
44.60000 128.000
44.62000 112.000
44.64000 128.000
44.66000 130.000
44.68000 108.000
44.70000 124.000
44.72000 132.000
44.74000 140.000
44.76000 124.000
44.78000 161.000
44.80000 127.000
44.82000 128.000
44.84000 119.000
44.86000 123.000
44.88000 135.000
44.90000 121.000
44.92000 129.000
44.94000 115.000
44.96000 97.000
44.98000 117.000
45.00000 122.000
45.02000 123.000
45.04000 132.000
45.06000 133.000
45.08000 131.000
45.10000 132.000
45.12000 117.000
45.14000 121.000
45.16000 111.000
45.18000 136.000
45.20000 127.000
45.22000 127.000
45.24000 131.000
45.26000 114.000
45.28000 105.000
45.30000 117.000
45.32000 143.000
45.34000 130.000
45.36000 133.000
45.38000 149.000
45.40000 149.000
45.42000 157.000
45.44000 178.000
45.46000 174.000
45.48000 178.000
45.50000 175.000
45.52000 184.000
45.54000 173.000
45.56000 201.000
45.58000 192.000
45.60000 174.000
45.62000 181.000
45.64000 166.000
45.66000 160.000
45.68000 145.000
45.70000 132.000
45.72000 136.000
45.74000 119.000
45.76000 121.000
45.78000 157.000
45.80000 122.000
45.82000 120.000
45.84000 147.000
45.86000 120.000
45.88000 113.000
45.90000 115.000
45.92000 112.000
45.94000 129.000
45.96000 124.000
45.98000 116.000
46.00000 115.000
46.02000 131.000
46.04000 111.000
46.06000 103.000
46.08000 121.000
46.10000 103.000
46.12000 98.000
46.14000 109.000
46.16000 122.000
46.18000 125.000
46.20000 110.000
46.22000 112.000
46.24000 118.000
46.26000 122.000
46.28000 92.000
46.30000 111.000
46.32000 116.000
46.34000 115.000
46.36000 89.000
46.38000 90.000
46.40000 107.000
46.42000 110.000
46.44000 117.000
46.46000 103.000
46.48000 111.000
46.50000 94.000
46.52000 117.000
46.54000 94.000
46.56000 102.000
46.58000 103.000
46.60000 112.000
46.62000 97.000
46.64000 126.000
46.66000 109.000
46.68000 111.000
46.70000 118.000
46.72000 102.000
46.74000 124.000
46.76000 126.000
46.78000 113.000
46.80000 123.000
46.82000 88.000
46.84000 118.000
46.86000 114.000
46.88000 131.000
46.90000 98.000
46.92000 115.000
46.94000 111.000
46.96000 108.000
46.98000 103.000
47.00000 107.000
47.02000 88.000
47.04000 112.000
47.06000 97.000
47.08000 106.000
47.10000 102.000
47.12000 102.000
47.14000 108.000
47.16000 98.000
47.18000 117.000
47.20000 99.000
47.22000 105.000
47.24000 106.000
47.26000 104.000
47.28000 114.000
47.30000 83.000
47.32000 88.000
47.34000 112.000
47.36000 112.000
47.38000 95.000
47.40000 111.000
47.42000 108.000
47.44000 101.000
47.46000 109.000
47.48000 116.000
47.50000 102.000
47.52000 103.000
47.54000 93.000
47.56000 82.000
47.58000 116.000
47.60000 88.000
47.62000 81.000
47.64000 133.000
47.66000 112.000
47.68000 110.000
47.70000 108.000
47.72000 121.000
47.74000 136.000
47.76000 118.000
47.78000 151.000
47.80000 123.000
47.82000 165.000
47.84000 144.000
47.86000 151.000
47.88000 167.000
47.90000 174.000
47.92000 154.000
47.94000 157.000
47.96000 135.000
47.98000 134.000
48.00000 141.000
48.02000 136.000
48.04000 128.000
48.06000 147.000
48.08000 114.000
48.10000 148.000
48.12000 128.000
48.14000 112.000
48.16000 103.000
48.18000 83.000
48.20000 102.000
48.22000 85.000
48.24000 93.000
48.26000 116.000
48.28000 125.000
48.30000 116.000
48.32000 90.000
48.34000 115.000
48.36000 109.000
48.38000 113.000
48.40000 125.000
48.42000 106.000
48.44000 102.000
48.46000 99.000
48.48000 94.000
48.50000 108.000
48.52000 107.000
48.54000 106.000
48.56000 83.000
48.58000 92.000
48.60000 102.000
48.62000 106.000
48.64000 119.000
48.66000 97.000
48.68000 87.000
48.70000 111.000
48.72000 97.000
48.74000 106.000
48.76000 97.000
48.78000 106.000
48.80000 91.000
48.82000 89.000
48.84000 92.000
48.86000 100.000
48.88000 110.000
48.90000 85.000
48.92000 107.000
48.94000 101.000
48.96000 114.000
48.98000 87.000
49.00000 108.000
49.02000 83.000
49.04000 95.000
49.06000 120.000
49.08000 93.000
49.10000 102.000
49.12000 90.000
49.14000 101.000
49.16000 99.000
49.18000 118.000
49.20000 106.000
49.22000 106.000
49.24000 103.000
49.26000 129.000
49.28000 108.000
49.30000 108.000
49.32000 93.000
49.34000 105.000
49.36000 111.000
49.38000 113.000
49.40000 118.000
49.42000 94.000
49.44000 97.000
49.46000 109.000
49.48000 104.000
49.50000 104.000
49.52000 102.000
49.54000 109.000
49.56000 108.000
49.58000 106.000
49.60000 121.000
49.62000 129.000
49.64000 110.000
49.66000 104.000
49.68000 118.000
49.70000 105.000
49.72000 122.000
49.74000 115.000
49.76000 115.000
49.78000 107.000
49.80000 108.000
49.82000 120.000
49.84000 124.000
49.86000 122.000
49.88000 112.000
49.90000 134.000
49.92000 126.000
49.94000 170.000
49.96000 180.000
49.98000 186.000
50.00000 205.000
50.02000 209.000
50.04000 250.000
50.06000 282.000
50.08000 293.000
50.10000 363.000
50.12000 387.000
50.14000 399.000
50.16000 441.000
50.18000 419.000
50.20000 385.000
50.22000 355.000
50.24000 380.000
50.26000 334.000
50.28000 320.000
50.30000 301.000
50.32000 289.000
50.34000 260.000
50.36000 227.000
50.38000 208.000
50.40000 171.000
50.42000 159.000
50.44000 165.000
50.46000 138.000
50.48000 140.000
50.50000 134.000
50.52000 107.000
50.54000 105.000
50.56000 96.000
50.58000 109.000
50.60000 112.000
50.62000 118.000
50.64000 90.000
50.66000 105.000
50.68000 115.000
50.70000 109.000
50.72000 107.000
50.74000 112.000
50.76000 115.000
50.78000 105.000
50.80000 90.000
50.82000 119.000
50.84000 111.000
50.86000 114.000
50.88000 107.000
50.90000 107.000
50.92000 108.000
50.94000 118.000
50.96000 96.000
50.98000 100.000
51.00000 116.000
51.02000 107.000
51.04000 97.000
51.06000 106.000
51.08000 109.000
51.10000 111.000
51.12000 106.000
51.14000 114.000
51.16000 102.000
51.18000 123.000
51.20000 103.000
51.22000 118.000
51.24000 113.000
51.26000 101.000
51.28000 105.000
51.30000 92.000
51.32000 86.000
51.34000 109.000
51.36000 98.000
51.38000 130.000
51.40000 87.000
51.42000 106.000
51.44000 97.000
51.46000 114.000
51.48000 139.000
51.50000 95.000
51.52000 108.000
51.54000 103.000
51.56000 88.000
51.58000 86.000
51.60000 128.000
51.62000 102.000
51.64000 109.000
51.66000 92.000
51.68000 97.000
51.70000 108.000
51.72000 112.000
51.74000 122.000
51.76000 123.000
51.78000 94.000
51.80000 103.000
51.82000 96.000
51.84000 88.000
51.86000 95.000
51.88000 105.000
51.90000 94.000
51.92000 107.000
51.94000 93.000
51.96000 110.000
51.98000 94.000
52.00000 105.000
52.02000 119.000
52.04000 128.000
52.06000 107.000
52.08000 118.000
52.10000 129.000
52.12000 146.000
52.14000 144.000
52.16000 142.000
52.18000 181.000
52.20000 168.000
52.22000 184.000
52.24000 194.000
52.26000 237.000
52.28000 230.000
52.30000 298.000
52.32000 292.000
52.34000 308.000
52.36000 299.000
52.38000 327.000
52.40000 321.000
52.42000 301.000
52.44000 277.000
52.46000 263.000
52.48000 258.000
52.50000 214.000
52.52000 229.000
52.54000 216.000
52.56000 173.000
52.58000 173.000
52.60000 136.000
52.62000 143.000
52.64000 131.000
52.66000 119.000
52.68000 118.000
52.70000 96.000
52.72000 108.000
52.74000 103.000
52.76000 99.000
52.78000 100.000
52.80000 93.000
52.82000 90.000
52.84000 96.000
52.86000 94.000
52.88000 79.000
52.90000 90.000
52.92000 90.000
52.94000 101.000
52.96000 100.000
52.98000 114.000
53.00000 85.000
53.02000 98.000
53.04000 71.000
53.06000 80.000
53.08000 109.000
53.10000 89.000
53.12000 115.000
53.14000 116.000
53.16000 113.000
53.18000 82.000
53.20000 114.000
53.22000 81.000
53.24000 109.000
53.26000 83.000
53.28000 97.000
53.30000 109.000
53.32000 87.000
53.34000 100.000
53.36000 87.000
53.38000 91.000
53.40000 106.000
53.42000 98.000
53.44000 108.000
53.46000 103.000
53.48000 79.000
53.50000 83.000
53.52000 95.000
53.54000 104.000
53.56000 91.000
53.58000 104.000
53.60000 106.000
53.62000 95.000
53.64000 93.000
53.66000 93.000
53.68000 110.000
53.70000 81.000
53.72000 112.000
53.74000 108.000
53.76000 108.000
53.78000 81.000
53.80000 94.000
53.82000 98.000
53.84000 93.000
53.86000 79.000
53.88000 73.000
53.90000 97.000
53.92000 86.000
53.94000 73.000
53.96000 95.000
53.98000 85.000
54.00000 83.000
54.02000 102.000
54.04000 88.000
54.06000 97.000
54.08000 110.000
54.10000 109.000
54.12000 112.000
54.14000 99.000
54.16000 106.000
54.18000 95.000
54.20000 92.000
54.22000 107.000
54.24000 101.000
54.26000 105.000
54.28000 111.000
54.30000 115.000
54.32000 127.000
54.34000 134.000
54.36000 128.000
54.38000 154.000
54.40000 161.000
54.42000 168.000
54.44000 178.000
54.46000 169.000
54.48000 202.000
54.50000 153.000
54.52000 193.000
54.54000 184.000
54.56000 178.000
54.58000 183.000
54.60000 171.000
54.62000 157.000
54.64000 153.000
54.66000 153.000
54.68000 141.000
54.70000 132.000
54.72000 114.000
54.74000 106.000
54.76000 108.000
54.78000 99.000
54.80000 94.000
54.82000 92.000
54.84000 93.000
54.86000 98.000
54.88000 87.000
54.90000 87.000
54.92000 85.000
54.94000 77.000
54.96000 81.000
54.98000 101.000
55.00000 80.000
55.02000 98.000
55.04000 72.000
55.06000 75.000
55.08000 98.000
55.10000 82.000
55.12000 95.000
55.14000 94.000
55.16000 81.000
55.18000 77.000
55.20000 83.000
55.22000 89.000
55.24000 106.000
55.26000 81.000
55.28000 101.000
55.30000 83.000
55.32000 102.000
55.34000 81.000
55.36000 71.000
55.38000 84.000
55.40000 90.000
55.42000 97.000
55.44000 86.000
55.46000 90.000
55.48000 75.000
55.50000 95.000
55.52000 86.000
55.54000 85.000
55.56000 64.000
55.58000 77.000
55.60000 82.000
55.62000 87.000
55.64000 113.000
55.66000 98.000
55.68000 90.000
55.70000 83.000
55.72000 81.000
55.74000 111.000
55.76000 94.000
55.78000 90.000
55.80000 68.000
55.82000 87.000
55.84000 87.000
55.86000 84.000
55.88000 92.000
55.90000 101.000
55.92000 85.000
55.94000 106.000
55.96000 78.000
55.98000 82.000
56.00000 85.000
56.02000 90.000
56.04000 78.000
56.06000 88.000
56.08000 92.000
56.10000 83.000
56.12000 83.000
56.14000 85.000
56.16000 75.000
56.18000 79.000
56.20000 80.000
56.22000 82.000
56.24000 73.000
56.26000 93.000
56.28000 93.000
56.30000 83.000
56.32000 81.000
56.34000 71.000
56.36000 81.000
56.38000 83.000
56.40000 88.000
56.42000 95.000
56.44000 87.000
56.46000 93.000
56.48000 82.000
56.50000 88.000
56.52000 85.000
56.54000 78.000
56.56000 99.000
56.58000 111.000
56.60000 78.000
56.62000 68.000
56.64000 75.000
56.66000 90.000
56.68000 85.000
56.70000 92.000
56.72000 79.000
56.74000 87.000
56.76000 84.000
56.78000 90.000
56.80000 91.000
56.82000 84.000
56.84000 93.000
56.86000 99.000
56.88000 74.000
56.90000 93.000
56.92000 83.000
56.94000 80.000
56.96000 68.000
56.98000 88.000
57.00000 83.000
57.02000 84.000
57.04000 86.000
57.06000 94.000
57.08000 77.000
57.10000 78.000
57.12000 76.000
57.14000 78.000
57.16000 89.000
57.18000 87.000
57.20000 93.000
57.22000 84.000
57.24000 83.000
57.26000 83.000
57.28000 97.000
57.30000 96.000
57.32000 75.000
57.34000 98.000
57.36000 80.000
57.38000 99.000
57.40000 93.000
57.42000 89.000
57.44000 81.000
57.46000 86.000
57.48000 82.000
57.50000 79.000
57.52000 101.000
57.54000 80.000
57.56000 95.000
57.58000 81.000
57.60000 73.000
57.62000 84.000
57.64000 86.000
57.66000 87.000
57.68000 98.000
57.70000 79.000
57.72000 94.000
57.74000 96.000
57.76000 81.000
57.78000 85.000
57.80000 114.000
57.82000 109.000
57.84000 88.000
57.86000 89.000
57.88000 86.000
57.90000 100.000
57.92000 84.000
57.94000 108.000
57.96000 85.000
57.98000 98.000
58.00000 79.000
58.02000 89.000
58.04000 83.000
58.06000 85.000
58.08000 103.000
58.10000 84.000
58.12000 89.000
58.14000 79.000
58.16000 88.000
58.18000 91.000
58.20000 92.000
58.22000 76.000
58.24000 84.000
58.26000 92.000
58.28000 102.000
58.30000 86.000
58.32000 89.000
58.34000 99.000
58.36000 102.000
58.38000 118.000
58.40000 133.000
58.42000 122.000
58.44000 135.000
58.46000 109.000
58.48000 123.000
58.50000 153.000
58.52000 167.000
58.54000 180.000
58.56000 189.000
58.58000 203.000
58.60000 214.000
58.62000 205.000
58.64000 202.000
58.66000 187.000
58.68000 190.000
58.70000 190.000
58.72000 177.000
58.74000 159.000
58.76000 174.000
58.78000 160.000
58.80000 154.000
58.82000 136.000
58.84000 118.000
58.86000 110.000
58.88000 106.000
58.90000 93.000
58.92000 95.000
58.94000 94.000
58.96000 88.000
58.98000 97.000
59.00000 99.000
59.02000 77.000
59.04000 92.000
59.06000 93.000
59.08000 98.000
59.10000 76.000
59.12000 108.000
59.14000 94.000
59.16000 87.000
59.18000 89.000
59.20000 94.000
59.22000 78.000
59.24000 95.000
59.26000 86.000
59.28000 102.000
59.30000 91.000
59.32000 79.000
59.34000 90.000
59.36000 95.000
59.38000 99.000
59.40000 88.000
59.42000 108.000
59.44000 104.000
59.46000 87.000
59.48000 81.000
59.50000 96.000
59.52000 86.000
59.54000 106.000
59.56000 85.000
59.58000 97.000
59.60000 100.000
59.62000 87.000
59.64000 101.000
59.66000 87.000
59.68000 91.000
59.70000 95.000
59.72000 84.000
59.74000 107.000
59.76000 92.000
59.78000 78.000
59.80000 76.000
59.82000 99.000
59.84000 99.000
59.86000 89.000
59.88000 109.000
59.90000 88.000
59.92000 102.000
59.94000 102.000
59.96000 89.000
