5.00000 804.000
5.02000 804.000
5.04000 762.000
5.06000 783.000
5.08000 793.000
5.10000 819.000
5.12000 816.000
5.14000 763.000
5.16000 800.000
5.18000 772.000
5.20000 736.000
5.22000 710.000
5.24000 738.000
5.26000 780.000
5.28000 736.000
5.30000 732.000
5.32000 761.000
5.34000 753.000
5.36000 768.000
5.38000 712.000
5.40000 765.000
5.42000 728.000
5.44000 757.000
5.46000 737.000
5.48000 712.000
5.50000 685.000
5.52000 715.000
5.54000 778.000
5.56000 710.000
5.58000 693.000
5.60000 663.000
5.62000 716.000
5.64000 706.000
5.66000 648.000
5.68000 722.000
5.70000 719.000
5.72000 677.000
5.74000 726.000
5.76000 700.000
5.78000 648.000
5.80000 667.000
5.82000 686.000
5.84000 679.000
5.86000 719.000
5.88000 691.000
5.90000 673.000
5.92000 686.000
5.94000 685.000
5.96000 658.000
5.98000 637.000
6.00000 653.000
6.02000 657.000
6.04000 658.000
6.06000 700.000
6.08000 643.000
6.10000 636.000
6.12000 637.000
6.14000 595.000
6.16000 607.000
6.18000 640.000
6.20000 613.000
6.22000 600.000
6.24000 632.000
6.26000 619.000
6.28000 610.000
6.30000 618.000
6.32000 595.000
6.34000 621.000
6.36000 607.000
6.38000 614.000
6.40000 572.000
6.42000 571.000
6.44000 632.000
6.46000 629.000
6.48000 612.000
6.50000 619.000
6.52000 576.000
6.54000 563.000
6.56000 630.000
6.58000 574.000
6.60000 617.000
6.62000 636.000
6.64000 579.000
6.66000 614.000
6.68000 590.000
6.70000 582.000
6.72000 566.000
6.74000 580.000
6.76000 551.000
6.78000 580.000
6.80000 612.000
6.82000 537.000
6.84000 560.000
6.86000 531.000
6.88000 542.000
6.90000 569.000
6.92000 540.000
6.94000 573.000
6.96000 605.000
6.98000 510.000
7.00000 576.000
7.02000 583.000
7.04000 563.000
7.06000 542.000
7.08000 569.000
7.10000 541.000
7.12000 539.000
7.14000 499.000
7.16000 506.000
7.18000 525.000
7.20000 522.000
7.22000 522.000
7.24000 571.000
7.26000 567.000
7.28000 539.000
7.30000 517.000
7.32000 484.000
7.34000 516.000
7.36000 562.000
7.38000 509.000
7.40000 548.000
7.42000 540.000
7.44000 502.000
7.46000 499.000
7.48000 525.000
7.50000 547.000
7.52000 494.000
7.54000 491.000
7.56000 516.000
7.58000 497.000
7.60000 500.000
7.62000 537.000
7.64000 486.000
7.66000 499.000
7.68000 472.000
7.70000 528.000
7.72000 503.000
7.74000 533.000
7.76000 481.000
7.78000 464.000
7.80000 478.000
7.82000 460.000
7.84000 484.000
7.86000 470.000
7.88000 505.000
7.90000 480.000
7.92000 436.000
7.94000 501.000
7.96000 490.000
7.98000 463.000
8.00000 451.000
8.02000 474.000
8.04000 455.000
8.06000 473.000
8.08000 498.000
8.10000 482.000
8.12000 491.000
8.14000 470.000
8.16000 511.000
8.18000 495.000
8.20000 415.000
8.22000 475.000
8.24000 450.000
8.26000 443.000
8.28000 448.000
8.30000 474.000
8.32000 470.000
8.34000 449.000
8.36000 473.000
8.38000 437.000
8.40000 496.000
8.42000 466.000
8.44000 441.000
8.46000 451.000
8.48000 451.000
8.50000 454.000
8.52000 484.000
8.54000 427.000
8.56000 441.000
8.58000 438.000
8.60000 450.000
8.62000 423.000
8.64000 436.000
8.66000 464.000
8.68000 409.000
8.70000 486.000
8.72000 439.000
8.74000 374.000
8.76000 423.000
8.78000 423.000
8.80000 419.000
8.82000 423.000
8.84000 413.000
8.86000 418.000
8.88000 399.000
8.90000 422.000
8.92000 447.000
8.94000 424.000
8.96000 411.000
8.98000 383.000
9.00000 400.000
9.02000 405.000
9.04000 380.000
9.06000 397.000
9.08000 400.000
9.10000 390.000
9.12000 434.000
9.14000 430.000
9.16000 456.000
9.18000 434.000
9.20000 410.000
9.22000 459.000
9.24000 475.000
9.26000 429.000
9.28000 410.000
9.30000 413.000
9.32000 419.000
9.34000 357.000
9.36000 370.000
9.38000 403.000
9.40000 394.000
9.42000 377.000
9.44000 410.000
9.46000 410.000
9.48000 387.000
9.50000 398.000
9.52000 427.000
9.54000 419.000
9.56000 410.000
9.58000 357.000
9.60000 391.000
9.62000 418.000
9.64000 377.000
9.66000 381.000
9.68000 379.000
9.70000 381.000
9.72000 416.000
9.74000 339.000
9.76000 384.000
9.78000 399.000
9.80000 408.000
9.82000 401.000
9.84000 394.000
9.86000 383.000
9.88000 350.000
9.90000 366.000
9.92000 338.000
9.94000 358.000
9.96000 421.000
9.98000 364.000
10.00000 345.000
10.02000 396.000
10.04000 377.000
10.06000 356.000
10.08000 342.000
10.10000 347.000
10.12000 357.000
10.14000 379.000
10.16000 342.000
10.18000 381.000
10.20000 363.000
10.22000 354.000
10.24000 357.000
10.26000 397.000
10.28000 368.000
10.30000 376.000
10.32000 394.000
10.34000 376.000
10.36000 373.000
10.38000 355.000
10.40000 409.000
10.42000 351.000
10.44000 372.000
10.46000 336.000
10.48000 383.000
10.50000 356.000
10.52000 343.000
10.54000 373.000
10.56000 356.000
10.58000 345.000
10.60000 337.000
10.62000 329.000
10.64000 306.000
10.66000 347.000
10.68000 355.000
10.70000 377.000
10.72000 381.000
10.74000 325.000
10.76000 339.000
10.78000 330.000
10.80000 391.000
10.82000 358.000
10.84000 397.000
10.86000 353.000
10.88000 304.000
10.90000 334.000
10.92000 356.000
10.94000 349.000
10.96000 322.000
10.98000 331.000
11.00000 348.000
11.02000 319.000
11.04000 354.000
11.06000 337.000
11.08000 316.000
11.10000 342.000
11.12000 373.000
11.14000 319.000
11.16000 288.000
11.18000 334.000
11.20000 350.000
11.22000 330.000
11.24000 373.000
11.26000 339.000
11.28000 337.000
11.30000 366.000
11.32000 356.000
11.34000 343.000
11.36000 366.000
11.38000 336.000
11.40000 340.000
11.42000 326.000
11.44000 344.000
11.46000 336.000
11.48000 327.000
11.50000 352.000
11.52000 362.000
11.54000 386.000
11.56000 318.000
11.58000 354.000
11.60000 359.000
11.62000 340.000
11.64000 311.000
11.66000 342.000
11.68000 336.000
11.70000 359.000
11.72000 365.000
11.74000 335.000
11.76000 362.000
11.78000 314.000
11.80000 365.000
11.82000 329.000
11.84000 325.000
11.86000 331.000
11.88000 343.000
11.90000 332.000
11.92000 352.000
11.94000 314.000
11.96000 342.000
11.98000 324.000
12.00000 328.000
12.02000 330.000
12.04000 304.000
12.06000 319.000
12.08000 353.000
12.10000 344.000
12.12000 326.000
12.14000 309.000
12.16000 337.000
12.18000 334.000
12.20000 352.000
12.22000 335.000
12.24000 340.000
12.26000 346.000
12.28000 344.000
12.30000 345.000
12.32000 342.000
12.34000 313.000
12.36000 335.000
12.38000 309.000
12.40000 340.000
12.42000 339.000
12.44000 332.000
12.46000 313.000
12.48000 312.000
12.50000 349.000
12.52000 352.000
12.54000 339.000
12.56000 305.000
12.58000 316.000
12.60000 336.000
12.62000 319.000
12.64000 360.000
12.66000 389.000
12.68000 322.000
12.70000 354.000
12.72000 309.000
12.74000 305.000
12.76000 314.000
12.78000 337.000
12.80000 333.000
12.82000 377.000
12.84000 336.000
12.86000 364.000
12.88000 347.000
12.90000 336.000
12.92000 339.000
12.94000 332.000
12.96000 355.000
12.98000 331.000
13.00000 363.000
13.02000 375.000
13.04000 375.000
13.06000 370.000
13.08000 365.000
13.10000 371.000
13.12000 387.000
13.14000 385.000
13.16000 389.000
13.18000 408.000
13.20000 387.000
13.22000 411.000
13.24000 464.000
13.26000 435.000
13.28000 467.000
13.30000 503.000
13.32000 504.000
13.34000 562.000
13.36000 575.000
13.38000 581.000
13.40000 628.000
13.42000 621.000
13.44000 655.000
13.46000 674.000
13.48000 721.000
13.50000 749.000
13.52000 752.000
13.54000 776.000
13.56000 814.000
13.58000 884.000
13.60000 840.000
13.62000 919.000
13.64000 993.000
13.66000 1061.000
13.68000 1087.000
13.70000 1172.000
13.72000 1269.000
13.74000 1481.000
13.76000 1488.000
13.78000 1745.000
13.80000 1799.000
13.82000 1903.000
13.84000 2237.000
13.86000 2311.000
13.88000 2661.000
13.90000 2868.000
13.92000 3251.000
13.94000 3580.000
13.96000 3982.000
13.98000 4337.000
14.00000 4952.000
14.02000 5274.000
14.04000 5242.000
14.06000 5141.000
14.08000 4631.000
14.10000 4000.000
14.12000 3343.000
14.14000 2555.000
14.16000 2080.000
14.18000 1635.000
14.20000 1344.000
14.22000 1107.000
14.24000 953.000
14.26000 770.000
14.28000 709.000
14.30000 595.000
14.32000 552.000
14.34000 457.000
14.36000 443.000
14.38000 394.000
14.40000 399.000
14.42000 365.000
14.44000 382.000
14.46000 334.000
14.48000 379.000
14.50000 333.000
14.52000 327.000
14.54000 310.000
14.56000 338.000
14.58000 337.000
14.60000 297.000
14.62000 299.000
14.64000 292.000
14.66000 293.000
14.68000 290.000
14.70000 297.000
14.72000 281.000
14.74000 292.000
14.76000 298.000
14.78000 265.000
14.80000 246.000
14.82000 272.000
14.84000 292.000
14.86000 284.000
14.88000 294.000
14.90000 316.000
14.92000 266.000
14.94000 254.000
14.96000 249.000
14.98000 272.000
15.00000 242.000
15.02000 279.000
15.04000 261.000
15.06000 248.000
15.08000 264.000
15.10000 290.000
15.12000 258.000
15.14000 251.000
15.16000 269.000
15.18000 271.000
15.20000 264.000
15.22000 227.000
15.24000 274.000
15.26000 291.000
15.28000 252.000
15.30000 257.000
15.32000 248.000
15.34000 241.000
15.36000 271.000
15.38000 288.000
15.40000 234.000
15.42000 220.000
15.44000 277.000
15.46000 248.000
15.48000 276.000
15.50000 245.000
15.52000 252.000
15.54000 269.000
15.56000 261.000
15.58000 256.000
15.60000 283.000
15.62000 221.000
15.64000 263.000
15.66000 227.000
15.68000 246.000
15.70000 249.000
15.72000 247.000
15.74000 242.000
15.76000 254.000
15.78000 240.000
15.80000 261.000
15.82000 249.000
15.84000 243.000
15.86000 245.000
15.88000 228.000
15.90000 237.000
15.92000 248.000
15.94000 240.000
15.96000 236.000
15.98000 232.000
16.00000 249.000
16.02000 242.000
16.04000 265.000
16.06000 222.000
16.08000 260.000
16.10000 232.000
16.12000 249.000
16.14000 240.000
16.16000 261.000
16.18000 241.000
16.20000 245.000
16.22000 261.000
16.24000 254.000
16.26000 245.000
16.28000 249.000
16.30000 229.000
16.32000 251.000
16.34000 257.000
16.36000 236.000
16.38000 267.000
16.40000 237.000
16.42000 252.000
16.44000 255.000
16.46000 225.000
16.48000 244.000
16.50000 235.000
16.52000 261.000
16.54000 236.000
16.56000 270.000
16.58000 253.000
16.60000 243.000
16.62000 208.000
16.64000 240.000
16.66000 229.000
16.68000 223.000
16.70000 252.000
16.72000 244.000
16.74000 229.000
16.76000 253.000
16.78000 246.000
16.80000 246.000
16.82000 250.000
16.84000 241.000
16.86000 240.000
16.88000 237.000
16.90000 275.000
16.92000 240.000
16.94000 233.000
16.96000 237.000
16.98000 241.000
17.00000 249.000
17.02000 250.000
17.04000 254.000
17.06000 228.000
17.08000 243.000
17.10000 242.000
17.12000 229.000
17.14000 216.000
17.16000 232.000
17.18000 242.000
17.20000 237.000
17.22000 245.000
17.24000 242.000
17.26000 253.000
17.28000 266.000
17.30000 273.000
17.32000 242.000
17.34000 231.000
17.36000 247.000
17.38000 256.000
17.40000 231.000
17.42000 215.000
17.44000 226.000
17.46000 266.000
17.48000 223.000
17.50000 255.000
17.52000 228.000
17.54000 237.000
17.56000 238.000
17.58000 236.000
17.60000 243.000
17.62000 256.000
17.64000 241.000
17.66000 218.000
17.68000 254.000
17.70000 249.000
17.72000 215.000
17.74000 233.000
17.76000 230.000
17.78000 228.000
17.80000 207.000
17.82000 233.000
17.84000 205.000
17.86000 227.000
17.88000 196.000
17.90000 244.000
17.92000 262.000
17.94000 241.000
17.96000 258.000
17.98000 231.000
18.00000 242.000
18.02000 227.000
18.04000 234.000
18.06000 244.000
18.08000 246.000
18.10000 263.000
18.12000 234.000
18.14000 231.000
18.16000 217.000
18.18000 263.000
18.20000 234.000
18.22000 227.000
18.24000 255.000
18.26000 236.000
18.28000 235.000
18.30000 258.000
18.32000 244.000
18.34000 226.000
18.36000 234.000
18.38000 229.000
18.40000 237.000
18.42000 225.000
18.44000 239.000
18.46000 243.000
18.48000 240.000
18.50000 229.000
18.52000 264.000
18.54000 244.000
18.56000 275.000
18.58000 230.000
18.60000 247.000
18.62000 261.000
18.64000 281.000
18.66000 231.000
18.68000 258.000
18.70000 223.000
18.72000 246.000
18.74000 222.000
18.76000 230.000
18.78000 243.000
18.80000 258.000
18.82000 228.000
18.84000 233.000
18.86000 245.000
18.88000 235.000
18.90000 241.000
18.92000 231.000
18.94000 244.000
18.96000 242.000
18.98000 236.000
19.00000 270.000
19.02000 260.000
19.04000 247.000
19.06000 226.000
19.08000 222.000
19.10000 255.000
19.12000 225.000
19.14000 212.000
19.16000 260.000
19.18000 210.000
19.20000 242.000
19.22000 233.000
19.24000 259.000
19.26000 261.000
19.28000 260.000
19.30000 260.000
19.32000 247.000
19.34000 274.000
19.36000 244.000
19.38000 209.000
19.40000 268.000
19.42000 279.000
19.44000 254.000
19.46000 280.000
19.48000 245.000
19.50000 250.000
19.52000 286.000
19.54000 288.000
19.56000 246.000
19.58000 315.000
19.60000 296.000
19.62000 280.000
19.64000 350.000
19.66000 322.000
19.68000 347.000
19.70000 336.000
19.72000 372.000
19.74000 386.000
19.76000 425.000
19.78000 437.000
19.80000 484.000
19.82000 504.000
19.84000 496.000
19.86000 541.000
19.88000 599.000
19.90000 619.000
19.92000 600.000
19.94000 571.000
19.96000 544.000
19.98000 480.000
20.00000 423.000
20.02000 368.000
20.04000 332.000
20.06000 316.000
20.08000 301.000
20.10000 290.000
20.12000 287.000
20.14000 302.000
20.16000 257.000
20.18000 259.000
20.20000 280.000
20.22000 261.000
20.24000 260.000
20.26000 264.000
20.28000 257.000
20.30000 234.000
20.32000 262.000
20.34000 266.000
20.36000 250.000
20.38000 275.000
20.40000 255.000
20.42000 259.000
20.44000 255.000
20.46000 263.000
20.48000 253.000
20.50000 233.000
20.52000 234.000
20.54000 279.000
20.56000 268.000
20.58000 230.000
20.60000 251.000
20.62000 268.000
20.64000 247.000
20.66000 235.000
20.68000 260.000
20.70000 272.000
20.72000 240.000
20.74000 246.000
20.76000 274.000
20.78000 273.000
20.80000 249.000
20.82000 274.000
20.84000 237.000
20.86000 261.000
20.88000 259.000
20.90000 266.000
20.92000 232.000
20.94000 261.000
20.96000 230.000
20.98000 244.000
21.00000 240.000
21.02000 254.000
21.04000 258.000
21.06000 226.000
21.08000 260.000
21.10000 282.000
21.12000 236.000
21.14000 279.000
21.16000 255.000
21.18000 271.000
21.20000 247.000
21.22000 223.000
21.24000 271.000
21.26000 243.000
21.28000 244.000
21.30000 265.000
21.32000 263.000
21.34000 279.000
21.36000 266.000
21.38000 249.000
21.40000 249.000
21.42000 265.000
21.44000 285.000
21.46000 255.000
21.48000 252.000
21.50000 245.000
21.52000 267.000
21.54000 293.000
21.56000 246.000
21.58000 253.000
21.60000 272.000
21.62000 289.000
21.64000 233.000
21.66000 283.000
21.68000 239.000
21.70000 242.000
21.72000 246.000
21.74000 268.000
21.76000 280.000
21.78000 285.000
21.80000 277.000
21.82000 232.000
21.84000 293.000
21.86000 277.000
21.88000 289.000
21.90000 268.000
21.92000 254.000
21.94000 257.000
21.96000 278.000
21.98000 264.000
22.00000 257.000
22.02000 255.000
22.04000 244.000
22.06000 258.000
22.08000 243.000
22.10000 280.000
22.12000 287.000
22.14000 261.000
22.16000 266.000
22.18000 249.000
22.20000 271.000
22.22000 262.000
22.24000 271.000
22.26000 276.000
22.28000 283.000
22.30000 262.000
22.32000 268.000
22.34000 255.000
22.36000 286.000
22.38000 282.000
22.40000 281.000
22.42000 292.000
22.44000 257.000
22.46000 264.000
22.48000 274.000
22.50000 272.000
22.52000 263.000
22.54000 279.000
22.56000 298.000
22.58000 271.000
22.60000 306.000
22.62000 274.000
22.64000 250.000
22.66000 290.000
22.68000 283.000
22.70000 278.000
22.72000 253.000
22.74000 285.000
22.76000 262.000
22.78000 203.000
22.80000 267.000
22.82000 282.000
22.84000 267.000
22.86000 275.000
22.88000 275.000
22.90000 270.000
22.92000 284.000
22.94000 258.000
22.96000 274.000
22.98000 260.000
23.00000 286.000
23.02000 277.000
23.04000 281.000
23.06000 269.000
23.08000 259.000
23.10000 274.000
23.12000 270.000
23.14000 266.000
23.16000 290.000
23.18000 248.000
23.20000 286.000
23.22000 289.000
23.24000 281.000
23.26000 299.000
23.28000 281.000
23.30000 272.000
23.32000 298.000
23.34000 317.000
23.36000 279.000
23.38000 296.000
23.40000 280.000
23.42000 274.000
23.44000 284.000
23.46000 284.000
23.48000 281.000
23.50000 264.000
23.52000 270.000
23.54000 267.000
23.56000 262.000
23.58000 265.000
23.60000 295.000
23.62000 271.000
23.64000 294.000
23.66000 291.000
23.68000 317.000
23.70000 263.000
23.72000 283.000
23.74000 289.000
23.76000 295.000
23.78000 300.000
23.80000 292.000
23.82000 294.000
23.84000 305.000
23.86000 291.000
23.88000 283.000
23.90000 281.000
23.92000 291.000
23.94000 308.000
23.96000 305.000
23.98000 324.000
24.00000 321.000
24.02000 335.000
24.04000 326.000
24.06000 285.000
24.08000 294.000
24.10000 331.000
24.12000 394.000
24.14000 394.000
24.16000 412.000
24.18000 421.000
24.20000 405.000
24.22000 453.000
24.24000 494.000
24.26000 576.000
24.28000 620.000
24.30000 653.000
24.32000 699.000
24.34000 811.000
24.36000 907.000
24.38000 978.000
24.40000 1114.000
24.42000 1142.000
24.44000 1155.000
24.46000 1243.000
24.48000 1063.000
24.50000 990.000
24.52000 921.000
24.54000 752.000
24.56000 658.000
24.58000 534.000
24.60000 517.000
24.62000 447.000
24.64000 367.000
24.66000 346.000
24.68000 361.000
24.70000 320.000
24.72000 334.000
24.74000 314.000
24.76000 307.000
24.78000 315.000
24.80000 293.000
24.82000 298.000
24.84000 282.000
24.86000 299.000
24.88000 267.000
24.90000 313.000
24.92000 275.000
24.94000 290.000
24.96000 275.000
24.98000 283.000
25.00000 313.000
25.02000 275.000
25.04000 280.000
25.06000 277.000
25.08000 259.000
25.10000 296.000
25.12000 266.000
25.14000 267.000
25.16000 299.000
25.18000 282.000
25.20000 293.000
25.22000 306.000
25.24000 291.000
25.26000 275.000
25.28000 290.000
25.30000 279.000
25.32000 296.000
25.34000 311.000
25.36000 261.000
25.38000 309.000
25.40000 286.000
25.42000 300.000
25.44000 282.000
25.46000 299.000
25.48000 274.000
25.50000 315.000
25.52000 283.000
25.54000 284.000
25.56000 293.000
25.58000 243.000
25.60000 309.000
25.62000 280.000
25.64000 264.000
25.66000 269.000
25.68000 304.000
25.70000 271.000
25.72000 278.000
25.74000 307.000
25.76000 296.000
25.78000 291.000
25.80000 299.000
25.82000 296.000
25.84000 308.000
25.86000 285.000
25.88000 263.000
25.90000 267.000
25.92000 272.000
25.94000 279.000
25.96000 262.000
25.98000 308.000
26.00000 268.000
26.02000 285.000
26.04000 290.000
26.06000 272.000
26.08000 246.000
26.10000 298.000
26.12000 298.000
26.14000 284.000
26.16000 302.000
26.18000 290.000
26.20000 272.000
26.22000 287.000
26.24000 264.000
26.26000 275.000
26.28000 258.000
26.30000 272.000
26.32000 256.000
26.34000 251.000
26.36000 258.000
26.38000 258.000
26.40000 288.000
26.42000 311.000
26.44000 301.000
26.46000 283.000
26.48000 291.000
26.50000 280.000
26.52000 328.000
26.54000 275.000
26.56000 257.000
26.58000 269.000
26.60000 293.000
26.62000 265.000
26.64000 251.000
26.66000 254.000
26.68000 253.000
26.70000 256.000
26.72000 275.000
26.74000 274.000
26.76000 316.000
26.78000 262.000
26.80000 310.000
26.82000 301.000
26.84000 289.000
26.86000 303.000
26.88000 270.000
26.90000 294.000
26.92000 294.000
26.94000 347.000
26.96000 313.000
26.98000 329.000
27.00000 330.000
27.02000 341.000
27.04000 364.000
27.06000 376.000
27.08000 364.000
27.10000 337.000
27.12000 351.000
27.14000 381.000
27.16000 356.000
27.18000 353.000
27.20000 312.000
27.22000 311.000
27.24000 376.000
27.26000 358.000
27.28000 314.000
27.30000 350.000
27.32000 304.000
27.34000 334.000
27.36000 317.000
27.38000 325.000
27.40000 297.000
27.42000 314.000
27.44000 324.000
27.46000 315.000
27.48000 322.000
27.50000 342.000
27.52000 314.000
27.54000 323.000
27.56000 348.000
27.58000 388.000
27.60000 339.000
27.62000 386.000
27.64000 336.000
27.66000 359.000
27.68000 361.000
27.70000 378.000
27.72000 370.000
27.74000 384.000
27.76000 387.000
27.78000 405.000
27.80000 406.000
27.82000 400.000
27.84000 456.000
27.86000 486.000
27.88000 478.000
27.90000 534.000
27.92000 560.000
27.94000 636.000
27.96000 670.000
27.98000 701.000
28.00000 795.000
28.02000 841.000
28.04000 1034.000
28.06000 1126.000
28.08000 1215.000
28.10000 1378.000
28.12000 1627.000
28.14000 1888.000
28.16000 2186.000
28.18000 2437.000
28.20000 2733.000
28.22000 3235.000
28.24000 3656.000
28.26000 3872.000
28.28000 4132.000
28.30000 3947.000
28.32000 3898.000
28.34000 3409.000
28.36000 3046.000
28.38000 2459.000
28.40000 2220.000
28.42000 1827.000
28.44000 1451.000
28.46000 1190.000
28.48000 1011.000
28.50000 852.000
28.52000 728.000
28.54000 624.000
28.56000 582.000
28.58000 532.000
28.60000 480.000
28.62000 484.000
28.64000 397.000
28.66000 396.000
28.68000 389.000
28.70000 338.000
28.72000 323.000
28.74000 350.000
28.76000 371.000
28.78000 350.000
28.80000 346.000
28.82000 315.000
28.84000 358.000
28.86000 317.000
28.88000 324.000
28.90000 325.000
28.92000 289.000
28.94000 278.000
28.96000 315.000
28.98000 299.000
29.00000 264.000
29.02000 283.000
29.04000 280.000
29.06000 286.000
29.08000 311.000
29.10000 292.000
29.12000 259.000
29.14000 265.000
29.16000 289.000
29.18000 312.000
29.20000 278.000
29.22000 260.000
29.24000 265.000
29.26000 282.000
29.28000 267.000
29.30000 293.000
29.32000 249.000
29.34000 260.000
29.36000 259.000
29.38000 276.000
29.40000 256.000
29.42000 254.000
29.44000 283.000
29.46000 260.000
29.48000 261.000
29.50000 272.000
29.52000 292.000
29.54000 253.000
29.56000 264.000
29.58000 285.000
29.60000 280.000
29.62000 248.000
29.64000 282.000
29.66000 262.000
29.68000 263.000
29.70000 242.000
29.72000 265.000
29.74000 270.000
29.76000 267.000
29.78000 266.000
29.80000 276.000
29.82000 259.000
29.84000 276.000
29.86000 256.000
29.88000 238.000
29.90000 258.000
29.92000 296.000
29.94000 267.000
29.96000 254.000
29.98000 253.000
30.00000 271.000
30.02000 263.000
30.04000 262.000
30.06000 243.000
30.08000 245.000
30.10000 257.000
30.12000 253.000
30.14000 240.000
30.16000 253.000
30.18000 271.000
30.20000 281.000
30.22000 259.000
30.24000 257.000
30.26000 290.000
30.28000 276.000
30.30000 299.000
30.32000 253.000
30.34000 284.000
30.36000 268.000
30.38000 284.000
30.40000 274.000
30.42000 265.000
30.44000 252.000
30.46000 246.000
30.48000 250.000
30.50000 260.000
30.52000 284.000
30.54000 264.000
30.56000 273.000
30.58000 283.000
30.60000 274.000
30.62000 250.000
30.64000 242.000
30.66000 278.000
30.68000 270.000
30.70000 261.000
30.72000 295.000
30.74000 244.000
30.76000 252.000
30.78000 263.000
30.80000 277.000
30.82000 285.000
30.84000 276.000
30.86000 260.000
30.88000 255.000
30.90000 300.000
30.92000 271.000
30.94000 278.000
30.96000 289.000
30.98000 280.000
31.00000 265.000
31.02000 278.000
31.04000 300.000
31.06000 250.000
31.08000 284.000
31.10000 281.000
31.12000 312.000
31.14000 288.000
31.16000 305.000
31.18000 298.000
31.20000 317.000
31.22000 301.000
31.24000 319.000
31.26000 335.000
31.28000 337.000
31.30000 359.000
31.32000 362.000
31.34000 381.000
31.36000 412.000
31.38000 430.000
31.40000 474.000
31.42000 523.000
31.44000 650.000
31.46000 701.000
31.48000 780.000
31.50000 823.000
31.52000 951.000
31.54000 1151.000
31.56000 1238.000
31.58000 1479.000
31.60000 1740.000
31.62000 2011.000
31.64000 2276.000
31.66000 2602.000
31.68000 2855.000
31.70000 2824.000
31.72000 2953.000
31.74000 2712.000
31.76000 2504.000
31.78000 2255.000
31.80000 1882.000
31.82000 1636.000
31.84000 1255.000
31.86000 1101.000
31.88000 864.000
31.90000 736.000
31.92000 650.000
31.94000 542.000
31.96000 518.000
31.98000 401.000
32.00000 354.000
32.02000 342.000
32.04000 343.000
32.06000 334.000
32.08000 320.000
32.10000 295.000
32.12000 278.000
32.14000 267.000
32.16000 250.000
32.18000 280.000
32.20000 246.000
32.22000 225.000
32.24000 275.000
32.26000 258.000
32.28000 263.000
32.30000 249.000
32.32000 254.000
32.34000 218.000
32.36000 243.000
32.38000 241.000
32.40000 235.000
32.42000 243.000
32.44000 225.000
32.46000 236.000
32.48000 240.000
32.50000 236.000
32.52000 249.000
32.54000 218.000
32.56000 229.000
32.58000 224.000
32.60000 236.000
32.62000 233.000
32.64000 212.000
32.66000 251.000
32.68000 227.000
32.70000 254.000
32.72000 233.000
32.74000 203.000
32.76000 243.000
32.78000 203.000
32.80000 206.000
32.82000 225.000
32.84000 228.000
32.86000 238.000
32.88000 212.000
32.90000 191.000
32.92000 220.000
32.94000 235.000
32.96000 209.000
32.98000 211.000
33.00000 224.000
33.02000 221.000
33.04000 227.000
33.06000 229.000
33.08000 211.000
33.10000 215.000
33.12000 184.000
33.14000 216.000
33.16000 204.000
33.18000 181.000
33.20000 212.000
33.22000 237.000
33.24000 210.000
33.26000 234.000
33.28000 253.000
33.30000 207.000
33.32000 217.000
33.34000 219.000
33.36000 222.000
33.38000 213.000
33.40000 206.000
33.42000 205.000
33.44000 227.000
33.46000 205.000
33.48000 210.000
33.50000 214.000
33.52000 220.000
33.54000 238.000
33.56000 201.000
33.58000 193.000
33.60000 202.000
33.62000 207.000
33.64000 216.000
33.66000 213.000
33.68000 195.000
33.70000 208.000
33.72000 198.000
33.74000 206.000
33.76000 193.000
33.78000 212.000
33.80000 223.000
33.82000 190.000
33.84000 211.000
33.86000 192.000
33.88000 202.000
33.90000 202.000
33.92000 213.000
33.94000 223.000
33.96000 208.000
33.98000 191.000
34.00000 207.000
34.02000 181.000
34.04000 195.000
34.06000 187.000
34.08000 196.000
34.10000 192.000
34.12000 199.000
34.14000 200.000
34.16000 197.000
34.18000 192.000
34.20000 194.000
34.22000 212.000
34.24000 218.000
34.26000 214.000
34.28000 193.000
34.30000 214.000
34.32000 220.000
34.34000 212.000
34.36000 205.000
34.38000 204.000
34.40000 187.000
34.42000 233.000
34.44000 201.000
34.46000 222.000
34.48000 204.000
34.50000 226.000
34.52000 229.000
34.54000 212.000
34.56000 223.000
34.58000 238.000
34.60000 239.000
34.62000 281.000
34.64000 323.000
34.66000 323.000
34.68000 311.000
34.70000 320.000
34.72000 361.000
34.74000 403.000
34.76000 500.000
34.78000 545.000
34.80000 555.000
34.82000 587.000
34.84000 598.000
34.86000 522.000
34.88000 498.000
34.90000 424.000
34.92000 415.000
34.94000 412.000
34.96000 384.000
34.98000 323.000
35.00000 268.000
35.02000 270.000
35.04000 252.000
35.06000 202.000
35.08000 206.000
35.10000 217.000
35.12000 217.000
35.14000 208.000
35.16000 197.000
35.18000 225.000
35.20000 207.000
35.22000 191.000
35.24000 173.000
35.26000 182.000
35.28000 191.000
35.30000 188.000
35.32000 193.000
35.34000 186.000
35.36000 212.000
35.38000 168.000
35.40000 206.000
35.42000 194.000
35.44000 159.000
35.46000 188.000
35.48000 186.000
35.50000 170.000
35.52000 188.000
35.54000 180.000
35.56000 189.000
35.58000 185.000
35.60000 192.000
35.62000 169.000
35.64000 197.000
35.66000 188.000
35.68000 173.000
35.70000 198.000
35.72000 169.000
35.74000 168.000
35.76000 191.000
35.78000 183.000
35.80000 163.000
35.82000 175.000
35.84000 189.000
35.86000 185.000
35.88000 188.000
35.90000 168.000
35.92000 163.000
35.94000 182.000
35.96000 181.000
35.98000 160.000
36.00000 168.000
36.02000 187.000
36.04000 172.000
36.06000 165.000
36.08000 186.000
36.10000 184.000
36.12000 171.000
36.14000 173.000
36.16000 174.000
36.18000 188.000
36.20000 185.000
36.22000 178.000
36.24000 190.000
36.26000 198.000
36.28000 195.000
36.30000 167.000
36.32000 168.000
36.34000 189.000
36.36000 182.000
36.38000 179.000
36.40000 176.000
36.42000 176.000
36.44000 179.000
36.46000 167.000
36.48000 183.000
36.50000 156.000
36.52000 194.000
36.54000 161.000
36.56000 159.000
36.58000 156.000
36.60000 155.000
36.62000 190.000
36.64000 194.000
36.66000 171.000
36.68000 177.000
36.70000 193.000
36.72000 191.000
36.74000 188.000
36.76000 157.000
36.78000 175.000
36.80000 192.000
36.82000 161.000
36.84000 159.000
36.86000 182.000
36.88000 161.000
36.90000 186.000
36.92000 172.000
36.94000 166.000
36.96000 187.000
36.98000 190.000
37.00000 196.000
37.02000 179.000
37.04000 174.000
37.06000 171.000
37.08000 157.000
37.10000 180.000
37.12000 173.000
37.14000 180.000
37.16000 159.000
37.18000 173.000
37.20000 173.000
37.22000 185.000
37.24000 171.000
37.26000 172.000
37.28000 179.000
37.30000 162.000
37.32000 184.000
37.34000 174.000
37.36000 166.000
37.38000 167.000
37.40000 150.000
37.42000 166.000
37.44000 163.000
37.46000 167.000
37.48000 169.000
37.50000 162.000
37.52000 164.000
37.54000 176.000
37.56000 155.000
37.58000 167.000
37.60000 145.000
37.62000 194.000
37.64000 144.000
37.66000 156.000
37.68000 191.000
37.70000 169.000
37.72000 164.000
37.74000 170.000
37.76000 174.000
37.78000 191.000
37.80000 149.000
37.82000 172.000
37.84000 152.000
37.86000 161.000
37.88000 180.000
37.90000 135.000
37.92000 173.000
37.94000 172.000
37.96000 176.000
37.98000 179.000
38.00000 170.000
38.02000 154.000
38.04000 154.000
38.06000 156.000
38.08000 147.000
38.10000 157.000
38.12000 177.000
38.14000 138.000
38.16000 173.000
38.18000 142.000
38.20000 175.000
38.22000 132.000
38.24000 137.000
38.26000 181.000
38.28000 178.000
38.30000 158.000
38.32000 168.000
38.34000 138.000
38.36000 164.000
38.38000 169.000
38.40000 167.000
38.42000 207.000
38.44000 167.000
38.46000 163.000
38.48000 145.000
38.50000 170.000
38.52000 158.000
38.54000 168.000
38.56000 192.000
38.58000 192.000
38.60000 196.000
38.62000 184.000
38.64000 181.000
38.66000 200.000
38.68000 199.000
38.70000 162.000
38.72000 166.000
38.74000 190.000
38.76000 149.000
38.78000 177.000
38.80000 178.000
38.82000 175.000
38.84000 176.000
38.86000 166.000
38.88000 155.000
38.90000 164.000
38.92000 181.000
38.94000 144.000
38.96000 150.000
38.98000 161.000
39.00000 162.000
39.02000 178.000
39.04000 165.000
39.06000 153.000
39.08000 175.000
39.10000 157.000
39.12000 153.000
39.14000 159.000
39.16000 156.000
39.18000 168.000
39.20000 173.000
39.22000 167.000
39.24000 190.000
39.26000 156.000
39.28000 171.000
39.30000 158.000
39.32000 199.000
39.34000 171.000
39.36000 177.000
39.38000 173.000
39.40000 189.000
39.42000 163.000
39.44000 187.000
39.46000 195.000
39.48000 162.000
39.50000 177.000
39.52000 189.000
39.54000 154.000
39.56000 173.000
39.58000 194.000
39.60000 182.000
39.62000 191.000
39.64000 155.000
39.66000 183.000
39.68000 172.000
39.70000 176.000
39.72000 198.000
39.74000 174.000
39.76000 181.000
39.78000 168.000
39.80000 181.000
39.82000 174.000
39.84000 204.000
39.86000 178.000
39.88000 183.000
39.90000 205.000
39.92000 200.000
39.94000 180.000
39.96000 201.000
39.98000 224.000
40.00000 204.000
40.02000 225.000
40.04000 190.000
40.06000 260.000
40.08000 215.000
40.10000 236.000
40.12000 236.000
40.14000 263.000
40.16000 300.000
40.18000 289.000
40.20000 344.000
40.22000 417.000
40.24000 499.000
40.26000 493.000
40.28000 635.000
40.30000 714.000
40.32000 851.000
40.34000 978.000
40.36000 1098.000
40.38000 1344.000
40.40000 1426.000
40.42000 1481.000
40.44000 1460.000
40.46000 1409.000
40.48000 1275.000
40.50000 1181.000
40.52000 1120.000
40.54000 953.000
40.56000 894.000
40.58000 697.000
40.60000 545.000
40.62000 472.000
40.64000 409.000
40.66000 376.000
40.68000 325.000
40.70000 324.000
40.72000 274.000
40.74000 271.000
40.76000 246.000
40.78000 230.000
40.80000 231.000
40.82000 244.000
40.84000 203.000
40.86000 216.000
40.88000 197.000
40.90000 193.000
40.92000 203.000
40.94000 190.000
40.96000 212.000
40.98000 201.000
41.00000 220.000
41.02000 199.000
41.04000 185.000
41.06000 214.000
41.08000 235.000
41.10000 187.000
41.12000 212.000
41.14000 189.000
41.16000 188.000
41.18000 195.000
41.20000 182.000
41.22000 170.000
41.24000 176.000
41.26000 178.000
41.28000 175.000
41.30000 175.000
41.32000 204.000
41.34000 189.000
41.36000 167.000
41.38000 165.000
41.40000 173.000
41.42000 179.000
41.44000 176.000
41.46000 184.000
41.48000 176.000
41.50000 194.000
41.52000 165.000
41.54000 173.000
41.56000 191.000
41.58000 199.000
41.60000 191.000
41.62000 224.000
41.64000 184.000
41.66000 164.000
41.68000 175.000
41.70000 178.000
41.72000 173.000
41.74000 198.000
41.76000 210.000
41.78000 194.000
41.80000 151.000
41.82000 191.000
41.84000 192.000
41.86000 192.000
41.88000 193.000
41.90000 166.000
41.92000 164.000
41.94000 160.000
41.96000 212.000
41.98000 163.000
42.00000 177.000
42.02000 195.000
42.04000 174.000
42.06000 200.000
42.08000 167.000
42.10000 204.000
42.12000 176.000
42.14000 186.000
42.16000 181.000
42.18000 180.000
42.20000 191.000
42.22000 191.000
42.24000 175.000
42.26000 151.000
42.28000 193.000
42.30000 174.000
42.32000 190.000
42.34000 191.000
42.36000 175.000
42.38000 208.000
42.40000 176.000
42.42000 180.000
42.44000 184.000
42.46000 219.000
42.48000 179.000
42.50000 215.000
42.52000 207.000
42.54000 192.000
42.56000 189.000
42.58000 201.000
42.60000 215.000
42.62000 218.000
42.64000 249.000
42.66000 223.000
42.68000 246.000
42.70000 254.000
42.72000 284.000
42.74000 305.000
42.76000 345.000
42.78000 380.000
42.80000 429.000
42.82000 537.000
42.84000 597.000
42.86000 702.000
42.88000 852.000
42.90000 1020.000
42.92000 1123.000
42.94000 1358.000
42.96000 1430.000
42.98000 1466.000
43.00000 1513.000
43.02000 1472.000
43.04000 1352.000
43.06000 1261.000
43.08000 1150.000
43.10000 1017.000
43.12000 877.000
43.14000 799.000
43.16000 666.000
43.18000 488.000
43.20000 470.000
43.22000 435.000
43.24000 374.000
43.26000 295.000
43.28000 263.000
43.30000 284.000
43.32000 274.000
43.34000 238.000
43.36000 227.000
43.38000 217.000
43.40000 179.000
43.42000 204.000
43.44000 201.000
43.46000 178.000
43.48000 175.000
43.50000 170.000
43.52000 176.000
43.54000 181.000
43.56000 155.000
43.58000 190.000
43.60000 184.000
43.62000 167.000
43.64000 180.000
43.66000 158.000
43.68000 168.000
43.70000 166.000
43.72000 152.000
43.74000 142.000
43.76000 152.000
43.78000 155.000
43.80000 164.000
43.82000 191.000
43.84000 184.000
43.86000 154.000
43.88000 163.000
43.90000 165.000
43.92000 151.000
43.94000 163.000
43.96000 191.000
43.98000 166.000
44.00000 166.000
44.02000 144.000
44.04000 178.000
44.06000 140.000
44.08000 176.000
44.10000 183.000
44.12000 141.000
44.14000 165.000
44.16000 152.000
44.18000 152.000
44.20000 156.000
44.22000 146.000
44.24000 153.000
44.26000 156.000
44.28000 148.000
44.30000 149.000
44.32000 169.000
44.34000 143.000
44.36000 161.000
44.38000 151.000
44.40000 145.000
44.42000 162.000
44.44000 139.000
44.46000 154.000
44.48000 132.000
44.50000 131.000
44.52000 178.000
44.54000 147.000
44.56000 154.000
44.58000 150.000
44.60000 151.000
44.62000 134.000
44.64000 159.000
44.66000 125.000
44.68000 140.000
44.70000 138.000
44.72000 151.000
44.74000 147.000
44.76000 140.000
44.78000 153.000
44.80000 146.000
44.82000 157.000
44.84000 159.000
44.86000 147.000
44.88000 149.000
44.90000 155.000
44.92000 144.000
44.94000 150.000
44.96000 155.000
44.98000 151.000
45.00000 135.000
45.02000 154.000
45.04000 147.000
45.06000 145.000
45.08000 151.000
45.10000 151.000
45.12000 139.000
45.14000 154.000
45.16000 150.000
45.18000 158.000
45.20000 154.000
45.22000 149.000
45.24000 152.000
45.26000 128.000
45.28000 136.000
45.30000 172.000
45.32000 179.000
45.34000 164.000
45.36000 158.000
45.38000 165.000
45.40000 190.000
45.42000 193.000
45.44000 169.000
45.46000 208.000
45.48000 183.000
45.50000 184.000
45.52000 167.000
45.54000 164.000
45.56000 185.000
45.58000 151.000
45.60000 141.000
45.62000 144.000
45.64000 126.000
45.66000 157.000
45.68000 143.000
45.70000 134.000
45.72000 139.000
45.74000 142.000
45.76000 143.000
45.78000 120.000
45.80000 137.000
45.82000 126.000
45.84000 124.000
45.86000 125.000
45.88000 119.000
45.90000 139.000
45.92000 139.000
45.94000 145.000
45.96000 153.000
45.98000 140.000
46.00000 120.000
46.02000 129.000
46.04000 119.000
46.06000 138.000
46.08000 122.000
46.10000 119.000
46.12000 128.000
46.14000 123.000
46.16000 140.000
46.18000 136.000
46.20000 133.000
46.22000 154.000
46.24000 130.000
46.26000 122.000
46.28000 133.000
46.30000 123.000
46.32000 138.000
46.34000 142.000
46.36000 122.000
46.38000 124.000
46.40000 120.000
46.42000 141.000
46.44000 138.000
46.46000 132.000
46.48000 117.000
46.50000 143.000
46.52000 133.000
46.54000 132.000
46.56000 120.000
46.58000 147.000
46.60000 131.000
46.62000 128.000
46.64000 124.000
46.66000 138.000
46.68000 113.000
46.70000 141.000
46.72000 124.000
46.74000 115.000
46.76000 128.000
46.78000 124.000
46.80000 92.000
46.82000 120.000
46.84000 138.000
46.86000 127.000
46.88000 110.000
46.90000 126.000
46.92000 120.000
46.94000 120.000
46.96000 129.000
46.98000 125.000
47.00000 136.000
47.02000 109.000
47.04000 119.000
47.06000 126.000
47.08000 132.000
47.10000 128.000
47.12000 136.000
47.14000 119.000
47.16000 128.000
47.18000 101.000
47.20000 156.000
47.22000 127.000
47.24000 122.000
47.26000 124.000
47.28000 125.000
47.30000 119.000
47.32000 114.000
47.34000 127.000
47.36000 153.000
47.38000 127.000
47.40000 129.000
47.42000 116.000
47.44000 128.000
47.46000 128.000
47.48000 115.000
47.50000 131.000
47.52000 120.000
47.54000 110.000
47.56000 108.000
47.58000 147.000
47.60000 136.000
47.62000 118.000
47.64000 135.000
47.66000 121.000
47.68000 141.000
47.70000 156.000
47.72000 156.000
47.74000 133.000
47.76000 168.000
47.78000 149.000
47.80000 154.000
47.82000 176.000
47.84000 164.000
47.86000 158.000
47.88000 156.000
47.90000 169.000
47.92000 170.000
47.94000 145.000
47.96000 147.000
47.98000 138.000
48.00000 138.000
48.02000 116.000
48.04000 137.000
48.06000 130.000
48.08000 124.000
48.10000 123.000
48.12000 134.000
48.14000 129.000
48.16000 119.000
48.18000 108.000
48.20000 120.000
48.22000 129.000
48.24000 104.000
48.26000 108.000
48.28000 110.000
48.30000 88.000
48.32000 118.000
48.34000 103.000
48.36000 115.000
48.38000 131.000
48.40000 124.000
48.42000 109.000
48.44000 132.000
48.46000 105.000
48.48000 123.000
48.50000 88.000
48.52000 116.000
48.54000 100.000
48.56000 105.000
48.58000 87.000
48.60000 130.000
48.62000 133.000
48.64000 107.000
48.66000 127.000
48.68000 116.000
48.70000 123.000
48.72000 111.000
48.74000 119.000
48.76000 103.000
48.78000 105.000
48.80000 102.000
48.82000 107.000
48.84000 122.000
48.86000 107.000
48.88000 105.000
48.90000 84.000
48.92000 109.000
48.94000 109.000
48.96000 143.000
48.98000 107.000
49.00000 126.000
49.02000 109.000
49.04000 119.000
49.06000 115.000
49.08000 112.000
49.10000 108.000
49.12000 110.000
49.14000 104.000
49.16000 125.000
49.18000 105.000
49.20000 124.000
49.22000 98.000
49.24000 127.000
49.26000 115.000
49.28000 109.000
49.30000 130.000
49.32000 115.000
49.34000 119.000
49.36000 124.000
49.38000 118.000
49.40000 137.000
49.42000 117.000
49.44000 111.000
49.46000 112.000
49.48000 103.000
49.50000 123.000
49.52000 113.000
49.54000 119.000
49.56000 118.000
49.58000 128.000
49.60000 107.000
49.62000 135.000
49.64000 115.000
49.66000 132.000
49.68000 129.000
49.70000 117.000
49.72000 132.000
49.74000 137.000
49.76000 131.000
49.78000 163.000
49.80000 148.000
49.82000 148.000
49.84000 167.000
49.86000 189.000
49.88000 174.000
49.90000 201.000
49.92000 223.000
49.94000 291.000
49.96000 303.000
49.98000 303.000
50.00000 380.000
50.02000 382.000
50.04000 464.000
50.06000 453.000
50.08000 468.000
50.10000 420.000
50.12000 332.000
50.14000 379.000
50.16000 337.000
50.18000 341.000
50.20000 295.000
50.22000 271.000
50.24000 220.000
50.26000 218.000
50.28000 176.000
50.30000 184.000
50.32000 167.000
50.34000 156.000
50.36000 156.000
50.38000 144.000
50.40000 145.000
50.42000 138.000
50.44000 130.000
50.46000 133.000
50.48000 115.000
50.50000 113.000
50.52000 133.000
50.54000 116.000
50.56000 115.000
50.58000 110.000
50.60000 115.000
50.62000 106.000
50.64000 109.000
50.66000 109.000
50.68000 122.000
50.70000 96.000
50.72000 117.000
50.74000 115.000
50.76000 98.000
50.78000 114.000
50.80000 111.000
50.82000 121.000
50.84000 99.000
50.86000 91.000
50.88000 106.000
50.90000 121.000
50.92000 100.000
50.94000 109.000
50.96000 93.000
50.98000 111.000
51.00000 114.000
51.02000 103.000
51.04000 109.000
51.06000 101.000
51.08000 117.000
51.10000 90.000
51.12000 110.000
51.14000 97.000
51.16000 111.000
51.18000 84.000
51.20000 112.000
51.22000 123.000
51.24000 98.000
51.26000 102.000
51.28000 118.000
51.30000 103.000
51.32000 109.000
51.34000 108.000
51.36000 117.000
51.38000 98.000
51.40000 93.000
51.42000 104.000
51.44000 106.000
51.46000 104.000
51.48000 99.000
51.50000 108.000
51.52000 97.000
51.54000 121.000
51.56000 109.000
51.58000 117.000
51.60000 103.000
51.62000 120.000
51.64000 114.000
51.66000 119.000
51.68000 107.000
51.70000 115.000
51.72000 122.000
51.74000 109.000
51.76000 106.000
51.78000 115.000
51.80000 110.000
51.82000 122.000
51.84000 126.000
51.86000 111.000
51.88000 110.000
51.90000 118.000
51.92000 123.000
51.94000 125.000
51.96000 124.000
51.98000 135.000
52.00000 131.000
52.02000 144.000
52.04000 155.000
52.06000 177.000
52.08000 176.000
52.10000 216.000
52.12000 202.000
52.14000 263.000
52.16000 276.000
52.18000 298.000
52.20000 355.000
52.22000 349.000
52.24000 422.000
52.26000 409.000
52.28000 423.000
52.30000 401.000
52.32000 384.000
52.34000 332.000
52.36000 335.000
52.38000 270.000
52.40000 303.000
52.42000 273.000
52.44000 226.000
52.46000 208.000
52.48000 164.000
52.50000 171.000
52.52000 163.000
52.54000 173.000
52.56000 124.000
52.58000 140.000
52.60000 135.000
52.62000 116.000
52.64000 116.000
52.66000 113.000
52.68000 112.000
52.70000 99.000
52.72000 101.000
52.74000 109.000
52.76000 103.000
52.78000 117.000
52.80000 119.000
52.82000 118.000
52.84000 98.000
52.86000 98.000
52.88000 96.000
52.90000 99.000
52.92000 95.000
52.94000 110.000
52.96000 106.000
52.98000 104.000
53.00000 91.000
53.02000 95.000
53.04000 102.000
53.06000 99.000
53.08000 94.000
53.10000 85.000
53.12000 88.000
53.14000 85.000
53.16000 105.000
53.18000 109.000
53.20000 97.000
53.22000 118.000
53.24000 96.000
53.26000 98.000
53.28000 108.000
53.30000 94.000
53.32000 104.000
53.34000 89.000
53.36000 99.000
53.38000 85.000
53.40000 92.000
53.42000 86.000
53.44000 97.000
53.46000 76.000
53.48000 90.000
53.50000 77.000
53.52000 95.000
53.54000 100.000
53.56000 118.000
53.58000 96.000
53.60000 102.000
53.62000 86.000
53.64000 94.000
53.66000 97.000
53.68000 86.000
53.70000 117.000
53.72000 93.000
53.74000 92.000
53.76000 114.000
53.78000 102.000
53.80000 93.000
53.82000 89.000
53.84000 87.000
53.86000 107.000
53.88000 102.000
53.90000 95.000
53.92000 109.000
53.94000 97.000
53.96000 95.000
53.98000 96.000
54.00000 89.000
54.02000 119.000
54.04000 94.000
54.06000 88.000
54.08000 94.000
54.10000 109.000
54.12000 106.000
54.14000 111.000
54.16000 95.000
54.18000 96.000
54.20000 117.000
54.22000 127.000
54.24000 116.000
54.26000 126.000
54.28000 140.000
54.30000 165.000
54.32000 164.000
54.34000 196.000
54.36000 179.000
54.38000 161.000
54.40000 176.000
54.42000 186.000
54.44000 152.000
54.46000 152.000
54.48000 156.000
54.50000 161.000
54.52000 130.000
54.54000 148.000
54.56000 138.000
54.58000 118.000
54.60000 138.000
54.62000 103.000
54.64000 107.000
54.66000 110.000
54.68000 99.000
54.70000 111.000
54.72000 89.000
54.74000 89.000
54.76000 95.000
54.78000 92.000
54.80000 80.000
54.82000 82.000
54.84000 84.000
54.86000 85.000
54.88000 85.000
54.90000 87.000
54.92000 91.000
54.94000 90.000
54.96000 93.000
54.98000 77.000
55.00000 108.000
55.02000 73.000
55.04000 99.000
55.06000 95.000
55.08000 88.000
55.10000 80.000
55.12000 78.000
55.14000 88.000
55.16000 87.000
55.18000 72.000
55.20000 88.000
55.22000 79.000
55.24000 79.000
55.26000 91.000
55.28000 85.000
55.30000 86.000
55.32000 90.000
55.34000 84.000
55.36000 81.000
55.38000 99.000
55.40000 92.000
55.42000 91.000
55.44000 93.000
55.46000 68.000
55.48000 74.000
55.50000 90.000
55.52000 79.000
55.54000 72.000
55.56000 81.000
55.58000 95.000
55.60000 72.000
55.62000 81.000
55.64000 89.000
55.66000 87.000
55.68000 72.000
55.70000 77.000
55.72000 91.000
55.74000 76.000
55.76000 97.000
55.78000 83.000
55.80000 101.000
55.82000 82.000
55.84000 72.000
55.86000 87.000
55.88000 99.000
55.90000 75.000
55.92000 70.000
55.94000 83.000
55.96000 72.000
55.98000 69.000
56.00000 71.000
56.02000 68.000
56.04000 79.000
56.06000 88.000
56.08000 77.000
56.10000 93.000
56.12000 78.000
56.14000 64.000
56.16000 66.000
56.18000 80.000
56.20000 77.000
56.22000 91.000
56.24000 80.000
56.26000 83.000
56.28000 70.000
56.30000 95.000
56.32000 74.000
56.34000 62.000
56.36000 79.000
56.38000 95.000
56.40000 78.000
56.42000 87.000
56.44000 84.000
56.46000 88.000
56.48000 77.000
56.50000 80.000
56.52000 98.000
56.54000 86.000
56.56000 78.000
56.58000 87.000
56.60000 80.000
56.62000 80.000
56.64000 95.000
56.66000 98.000
56.68000 99.000
56.70000 77.000
56.72000 74.000
56.74000 88.000
56.76000 81.000
56.78000 73.000
56.80000 75.000
56.82000 99.000
56.84000 81.000
56.86000 84.000
56.88000 94.000
56.90000 61.000
56.92000 85.000
56.94000 73.000
56.96000 81.000
56.98000 68.000
57.00000 71.000
57.02000 72.000
57.04000 85.000
57.06000 74.000
57.08000 84.000
57.10000 82.000
57.12000 68.000
57.14000 97.000
57.16000 78.000
57.18000 104.000
57.20000 73.000
57.22000 80.000
57.24000 85.000
57.26000 75.000
57.28000 75.000
57.30000 76.000
57.32000 89.000
57.34000 84.000
57.36000 76.000
57.38000 103.000
57.40000 83.000
57.42000 89.000
57.44000 83.000
57.46000 80.000
57.48000 71.000
57.50000 82.000
57.52000 79.000
57.54000 74.000
57.56000 88.000
57.58000 81.000
57.60000 82.000
57.62000 97.000
57.64000 67.000
57.66000 93.000
57.68000 98.000
57.70000 87.000
57.72000 74.000
57.74000 86.000
57.76000 106.000
57.78000 104.000
57.80000 88.000
57.82000 66.000
57.84000 96.000
57.86000 83.000
57.88000 82.000
57.90000 82.000
57.92000 82.000
57.94000 84.000
57.96000 86.000
57.98000 71.000
58.00000 85.000
58.02000 86.000
58.04000 85.000
58.06000 72.000
58.08000 93.000
58.10000 106.000
58.12000 89.000
58.14000 85.000
58.16000 91.000
58.18000 100.000
58.20000 93.000
58.22000 95.000
58.24000 129.000
58.26000 102.000
58.28000 108.000
58.30000 104.000
58.32000 115.000
58.34000 141.000
58.36000 155.000
58.38000 145.000
58.40000 174.000
58.42000 194.000
58.44000 189.000
58.46000 193.000
58.48000 207.000
58.50000 200.000
58.52000 190.000
58.54000 183.000
58.56000 170.000
58.58000 159.000
58.60000 153.000
58.62000 181.000
58.64000 150.000
58.66000 137.000
58.68000 152.000
58.70000 125.000
58.72000 134.000
58.74000 132.000
58.76000 125.000
58.78000 106.000
58.80000 110.000
58.82000 101.000
58.84000 91.000
58.86000 96.000
58.88000 68.000
58.90000 100.000
58.92000 92.000
58.94000 93.000
58.96000 84.000
58.98000 111.000
59.00000 96.000
59.02000 77.000
59.04000 93.000
59.06000 79.000
59.08000 92.000
59.10000 86.000
59.12000 68.000
59.14000 69.000
59.16000 78.000
59.18000 74.000
59.20000 82.000
59.22000 87.000
59.24000 81.000
59.26000 90.000
59.28000 79.000
59.30000 98.000
59.32000 106.000
59.34000 66.000
59.36000 79.000
59.38000 85.000
59.40000 92.000
59.42000 80.000
59.44000 91.000
59.46000 105.000
59.48000 105.000
59.50000 96.000
59.52000 87.000
59.54000 104.000
59.56000 99.000
59.58000 91.000
59.60000 89.000
59.62000 87.000
59.64000 90.000
59.66000 95.000
59.68000 111.000
59.70000 81.000
59.72000 97.000
59.74000 92.000
59.76000 79.000
59.78000 91.000
59.80000 79.000
59.82000 94.000
59.84000 115.000
59.86000 82.000
59.88000 92.000
59.90000 77.000
59.92000 86.000
59.94000 88.000
59.96000 99.000
