5.00000 794.000
5.02000 823.000
5.04000 845.000
5.06000 806.000
5.08000 803.000
5.10000 754.000
5.12000 784.000
5.14000 795.000
5.16000 750.000
5.18000 756.000
5.20000 790.000
5.22000 765.000
5.24000 763.000
5.26000 752.000
5.28000 764.000
5.30000 779.000
5.32000 742.000
5.34000 756.000
5.36000 791.000
5.38000 747.000
5.40000 830.000
5.42000 813.000
5.44000 758.000
5.46000 744.000
5.48000 723.000
5.50000 773.000
5.52000 761.000
5.54000 716.000
5.56000 733.000
5.58000 704.000
5.60000 728.000
5.62000 725.000
5.64000 679.000
5.66000 709.000
5.68000 705.000
5.70000 705.000
5.72000 688.000
5.74000 648.000
5.76000 726.000
5.78000 652.000
5.80000 669.000
5.82000 677.000
5.84000 654.000
5.86000 694.000
5.88000 658.000
5.90000 694.000
5.92000 676.000
5.94000 714.000
5.96000 674.000
5.98000 657.000
6.00000 675.000
6.02000 711.000
6.04000 694.000
6.06000 678.000
6.08000 675.000
6.10000 662.000
6.12000 659.000
6.14000 646.000
6.16000 633.000
6.18000 623.000
6.20000 697.000
6.22000 616.000
6.24000 682.000
6.26000 623.000
6.28000 639.000
6.30000 644.000
6.32000 599.000
6.34000 641.000
6.36000 621.000
6.38000 663.000
6.40000 615.000
6.42000 597.000
6.44000 625.000
6.46000 630.000
6.48000 653.000
6.50000 611.000
6.52000 594.000
6.54000 592.000
6.56000 592.000
6.58000 608.000
6.60000 590.000
6.62000 631.000
6.64000 619.000
6.66000 614.000
6.68000 585.000
6.70000 636.000
6.72000 642.000
6.74000 571.000
6.76000 596.000
6.78000 625.000
6.80000 644.000
6.82000 601.000
6.84000 602.000
6.86000 590.000
6.88000 536.000
6.90000 562.000
6.92000 614.000
6.94000 556.000
6.96000 575.000
6.98000 556.000
7.00000 540.000
7.02000 537.000
7.04000 533.000
7.06000 544.000
7.08000 566.000
7.10000 560.000
7.12000 591.000
7.14000 559.000
7.16000 539.000
7.18000 585.000
7.20000 561.000
7.22000 574.000
7.24000 545.000
7.26000 524.000
7.28000 541.000
7.30000 551.000
7.32000 537.000
7.34000 539.000
7.36000 554.000
7.38000 547.000
7.40000 547.000
7.42000 539.000
7.44000 554.000
7.46000 517.000
7.48000 522.000
7.50000 509.000
7.52000 487.000
7.54000 536.000
7.56000 529.000
7.58000 527.000
7.60000 474.000
7.62000 500.000
7.64000 514.000
7.66000 511.000
7.68000 481.000
7.70000 476.000
7.72000 496.000
7.74000 497.000
7.76000 505.000
7.78000 572.000
7.80000 506.000
7.82000 466.000
7.84000 523.000
7.86000 498.000
7.88000 530.000
7.90000 503.000
7.92000 476.000
7.94000 494.000
7.96000 436.000
7.98000 507.000
8.00000 476.000
8.02000 492.000
8.04000 552.000
8.06000 458.000
8.08000 524.000
8.10000 446.000
8.12000 478.000
8.14000 513.000
8.16000 487.000
8.18000 472.000
8.20000 450.000
8.22000 472.000
8.24000 476.000
8.26000 469.000
8.28000 486.000
8.30000 408.000
8.32000 460.000
8.34000 463.000
8.36000 460.000
8.38000 490.000
8.40000 446.000
8.42000 449.000
8.44000 431.000
8.46000 455.000
8.48000 422.000
8.50000 474.000
8.52000 441.000
8.54000 443.000
8.56000 449.000
8.58000 483.000
8.60000 451.000
8.62000 451.000
8.64000 468.000
8.66000 477.000
8.68000 478.000
8.70000 446.000
8.72000 456.000
8.74000 453.000
8.76000 451.000
8.78000 456.000
8.80000 489.000
8.82000 432.000
8.84000 413.000
8.86000 435.000
8.88000 408.000
8.90000 402.000
8.92000 409.000
8.94000 461.000
8.96000 424.000
8.98000 435.000
9.00000 423.000
9.02000 446.000
9.04000 395.000
9.06000 448.000
9.08000 425.000
9.10000 405.000
9.12000 397.000
9.14000 438.000
9.16000 415.000
9.18000 399.000
9.20000 422.000
9.22000 429.000
9.24000 439.000
9.26000 371.000
9.28000 403.000
9.30000 401.000
9.32000 395.000
9.34000 425.000
9.36000 411.000
9.38000 401.000
9.40000 424.000
9.42000 448.000
9.44000 341.000
9.46000 445.000
9.48000 385.000
9.50000 390.000
9.52000 391.000
9.54000 399.000
9.56000 397.000
9.58000 411.000
9.60000 382.000
9.62000 422.000
9.64000 365.000
9.66000 396.000
9.68000 391.000
9.70000 367.000
9.72000 406.000
9.74000 415.000
9.76000 366.000
9.78000 370.000
9.80000 377.000
9.82000 377.000
9.84000 364.000
9.86000 381.000
9.88000 383.000
9.90000 392.000
9.92000 349.000
9.94000 338.000
9.96000 382.000
9.98000 357.000
10.00000 379.000
10.02000 343.000
10.04000 388.000
10.06000 370.000
10.08000 372.000
10.10000 373.000
10.12000 403.000
10.14000 394.000
10.16000 376.000
10.18000 374.000
10.20000 381.000
10.22000 393.000
10.24000 359.000
10.26000 360.000
10.28000 364.000
10.30000 370.000
10.32000 345.000
10.34000 354.000
10.36000 374.000
10.38000 358.000
10.40000 347.000
10.42000 367.000
10.44000 369.000
10.46000 347.000
10.48000 362.000
10.50000 366.000
10.52000 339.000
10.54000 391.000
10.56000 343.000
10.58000 364.000
10.60000 354.000
10.62000 369.000
10.64000 344.000
10.66000 342.000
10.68000 335.000
10.70000 332.000
10.72000 349.000
10.74000 323.000
10.76000 383.000
10.78000 368.000
10.80000 370.000
10.82000 342.000
10.84000 357.000
10.86000 361.000
10.88000 354.000
10.90000 320.000
10.92000 343.000
10.94000 356.000
10.96000 335.000
10.98000 338.000
11.00000 346.000
11.02000 346.000
11.04000 387.000
11.06000 339.000
11.08000 326.000
11.10000 336.000
11.12000 342.000
11.14000 317.000
11.16000 331.000
11.18000 368.000
11.20000 352.000
11.22000 367.000
11.24000 395.000
11.26000 349.000
11.28000 349.000
11.30000 411.000
11.32000 356.000
11.34000 376.000
11.36000 418.000
11.38000 408.000
11.40000 434.000
11.42000 478.000
11.44000 448.000
11.46000 435.000
11.48000 476.000
11.50000 453.000
11.52000 446.000
11.54000 485.000
11.56000 458.000
11.58000 460.000
11.60000 431.000
11.62000 456.000
11.64000 486.000
11.66000 393.000
11.68000 421.000
11.70000 428.000
11.72000 400.000
11.74000 444.000
11.76000 419.000
11.78000 420.000
11.80000 405.000
11.82000 394.000
11.84000 426.000
11.86000 407.000
11.88000 406.000
11.90000 413.000
11.92000 380.000
11.94000 404.000
11.96000 411.000
11.98000 415.000
12.00000 402.000
12.02000 402.000
12.04000 429.000
12.06000 401.000
12.08000 406.000
12.10000 426.000
12.12000 384.000
12.14000 430.000
12.16000 410.000
12.18000 403.000
12.20000 394.000
12.22000 434.000
12.24000 420.000
12.26000 379.000
12.28000 405.000
12.30000 376.000
12.32000 392.000
12.34000 370.000
12.36000 401.000
12.38000 404.000
12.40000 410.000
12.42000 377.000
12.44000 443.000
12.46000 378.000
12.48000 422.000
12.50000 397.000
12.52000 414.000
12.54000 409.000
12.56000 441.000
12.58000 420.000
12.60000 430.000
12.62000 426.000
12.64000 419.000
12.66000 403.000
12.68000 412.000
12.70000 435.000
12.72000 418.000
12.74000 402.000
12.76000 459.000
12.78000 438.000
12.80000 405.000
12.82000 433.000
12.84000 431.000
12.86000 440.000
12.88000 421.000
12.90000 420.000
12.92000 469.000
12.94000 442.000
12.96000 455.000
12.98000 436.000
13.00000 461.000
13.02000 437.000
13.04000 477.000
13.06000 474.000
13.08000 514.000
13.10000 553.000
13.12000 531.000
13.14000 542.000
13.16000 530.000
13.18000 555.000
13.20000 535.000
13.22000 577.000
13.24000 613.000
13.26000 629.000
13.28000 610.000
13.30000 628.000
13.32000 679.000
13.34000 673.000
13.36000 752.000
13.38000 802.000
13.40000 758.000
13.42000 837.000
13.44000 809.000
13.46000 866.000
13.48000 858.000
13.50000 1021.000
13.52000 1007.000
13.54000 1049.000
13.56000 1098.000
13.58000 1158.000
13.60000 1208.000
13.62000 1320.000
13.64000 1342.000
13.66000 1517.000
13.68000 1590.000
13.70000 1569.000
13.72000 1698.000
13.74000 1764.000
13.76000 1918.000
13.78000 2053.000
13.80000 2227.000
13.82000 2330.000
13.84000 2601.000
13.86000 2640.000
13.88000 2869.000
13.90000 3100.000
13.92000 3192.000
13.94000 3564.000
13.96000 3732.000
13.98000 3815.000
14.00000 3835.000
14.02000 4139.000
14.04000 4134.000
14.06000 4056.000
14.08000 3623.000
14.10000 3289.000
14.12000 2930.000
14.14000 2439.000
14.16000 2102.000
14.18000 1844.000
14.20000 1595.000
14.22000 1436.000
14.24000 1301.000
14.26000 1095.000
14.28000 1039.000
14.30000 873.000
14.32000 807.000
14.34000 759.000
14.36000 733.000
14.38000 651.000
14.40000 576.000
14.42000 586.000
14.44000 530.000
14.46000 477.000
14.48000 455.000
14.50000 439.000
14.52000 423.000
14.54000 360.000
14.56000 425.000
14.58000 374.000
14.60000 351.000
14.62000 352.000
14.64000 361.000
14.66000 384.000
14.68000 358.000
14.70000 304.000
14.72000 310.000
14.74000 287.000
14.76000 293.000
14.78000 303.000
14.80000 275.000
14.82000 277.000
14.84000 295.000
14.86000 291.000
14.88000 290.000
14.90000 286.000
14.92000 288.000
14.94000 271.000
14.96000 274.000
14.98000 306.000
15.00000 246.000
15.02000 268.000
15.04000 252.000
15.06000 271.000
15.08000 280.000
15.10000 260.000
15.12000 284.000
15.14000 269.000
15.16000 258.000
15.18000 292.000
15.20000 265.000
15.22000 252.000
15.24000 282.000
15.26000 242.000
15.28000 267.000
15.30000 255.000
15.32000 248.000
15.34000 254.000
15.36000 238.000
15.38000 255.000
15.40000 251.000
15.42000 250.000
15.44000 239.000
15.46000 244.000
15.48000 222.000
15.50000 275.000
15.52000 238.000
15.54000 256.000
15.56000 227.000
15.58000 242.000
15.60000 231.000
15.62000 232.000
15.64000 238.000
15.66000 243.000
15.68000 240.000
15.70000 221.000
15.72000 244.000
15.74000 250.000
15.76000 232.000
15.78000 235.000
15.80000 235.000
15.82000 210.000
15.84000 241.000
15.86000 230.000
15.88000 241.000
15.90000 230.000
15.92000 247.000
15.94000 202.000
15.96000 233.000
15.98000 238.000
16.00000 235.000
16.02000 228.000
16.04000 237.000
16.06000 229.000
16.08000 236.000
16.10000 208.000
16.12000 223.000
16.14000 237.000
16.16000 210.000
16.18000 220.000
16.20000 222.000
16.22000 245.000
16.24000 228.000
16.26000 219.000
16.28000 229.000
16.30000 243.000
16.32000 238.000
16.34000 222.000
16.36000 233.000
16.38000 226.000
16.40000 204.000
16.42000 225.000
16.44000 211.000
16.46000 244.000
16.48000 229.000
16.50000 222.000
16.52000 240.000
16.54000 239.000
16.56000 226.000
16.58000 232.000
16.60000 220.000
16.62000 183.000
16.64000 226.000
16.66000 224.000
16.68000 226.000
16.70000 210.000
16.72000 239.000
16.74000 208.000
16.76000 208.000
16.78000 243.000
16.80000 216.000
16.82000 234.000
16.84000 213.000
16.86000 228.000
16.88000 228.000
16.90000 207.000
16.92000 216.000
16.94000 219.000
16.96000 234.000
16.98000 216.000
17.00000 230.000
17.02000 241.000
17.04000 189.000
17.06000 217.000
17.08000 231.000
17.10000 191.000
17.12000 232.000
17.14000 185.000
17.16000 205.000
17.18000 223.000
17.20000 238.000
17.22000 214.000
17.24000 220.000
17.26000 206.000
17.28000 216.000
17.30000 251.000
17.32000 226.000
17.34000 217.000
17.36000 224.000
17.38000 219.000
17.40000 232.000
17.42000 213.000
17.44000 219.000
17.46000 189.000
17.48000 208.000
17.50000 188.000
17.52000 227.000
17.54000 211.000
17.56000 204.000
17.58000 229.000
17.60000 190.000
17.62000 220.000
17.64000 202.000
17.66000 223.000
17.68000 211.000
17.70000 219.000
17.72000 211.000
17.74000 197.000
17.76000 215.000
17.78000 234.000
17.80000 199.000
17.82000 216.000
17.84000 191.000
17.86000 215.000
17.88000 210.000
17.90000 206.000
17.92000 215.000
17.94000 198.000
17.96000 195.000
17.98000 221.000
18.00000 208.000
18.02000 215.000
18.04000 212.000
18.06000 213.000
18.08000 203.000
18.10000 206.000
18.12000 214.000
18.14000 185.000
18.16000 201.000
18.18000 205.000
18.20000 203.000
18.22000 201.000
18.24000 189.000
18.26000 222.000
18.28000 203.000
18.30000 230.000
18.32000 207.000
18.34000 201.000
18.36000 228.000
18.38000 205.000
18.40000 215.000
18.42000 217.000
18.44000 192.000
18.46000 220.000
18.48000 209.000
18.50000 175.000
18.52000 217.000
18.54000 212.000
18.56000 230.000
18.58000 209.000
18.60000 202.000
18.62000 204.000
18.64000 204.000
18.66000 204.000
18.68000 192.000
18.70000 217.000
18.72000 219.000
18.74000 218.000
18.76000 215.000
18.78000 209.000
18.80000 203.000
18.82000 193.000
18.84000 223.000
18.86000 215.000
18.88000 211.000
18.90000 191.000
18.92000 222.000
18.94000 211.000
18.96000 212.000
18.98000 211.000
19.00000 196.000
19.02000 203.000
19.04000 211.000
19.06000 211.000
19.08000 206.000
19.10000 198.000
19.12000 206.000
19.14000 232.000
19.16000 230.000
19.18000 193.000
19.20000 205.000
19.22000 229.000
19.24000 239.000
19.26000 199.000
19.28000 202.000
19.30000 244.000
19.32000 213.000
19.34000 219.000
19.36000 221.000
19.38000 235.000
19.40000 225.000
19.42000 234.000
19.44000 231.000
19.46000 239.000
19.48000 238.000
19.50000 215.000
19.52000 224.000
19.54000 258.000
19.56000 277.000
19.58000 259.000
19.60000 279.000
19.62000 281.000
19.64000 295.000
19.66000 323.000
19.68000 283.000
19.70000 292.000
19.72000 323.000
19.74000 360.000
19.76000 348.000
19.78000 411.000
19.80000 467.000
19.82000 447.000
19.84000 456.000
19.86000 513.000
19.88000 543.000
19.90000 562.000
19.92000 561.000
19.94000 573.000
19.96000 512.000
19.98000 505.000
20.00000 426.000
20.02000 366.000
20.04000 369.000
20.06000 282.000
20.08000 265.000
20.10000 295.000
20.12000 279.000
20.14000 227.000
20.16000 240.000
20.18000 219.000
20.20000 224.000
20.22000 216.000
20.24000 210.000
20.26000 226.000
20.28000 212.000
20.30000 184.000
20.32000 218.000
20.34000 202.000
20.36000 242.000
20.38000 210.000
20.40000 224.000
20.42000 219.000
20.44000 210.000
20.46000 192.000
20.48000 205.000
20.50000 226.000
20.52000 206.000
20.54000 256.000
20.56000 191.000
20.58000 201.000
20.60000 187.000
20.62000 203.000
20.64000 204.000
20.66000 200.000
20.68000 195.000
20.70000 248.000
20.72000 208.000
20.74000 206.000
20.76000 199.000
20.78000 216.000
20.80000 197.000
20.82000 215.000
20.84000 230.000
20.86000 198.000
20.88000 192.000
20.90000 230.000
20.92000 251.000
20.94000 224.000
20.96000 236.000
20.98000 203.000
21.00000 217.000
21.02000 235.000
21.04000 219.000
21.06000 235.000
21.08000 223.000
21.10000 205.000
21.12000 228.000
21.14000 234.000
21.16000 223.000
21.18000 207.000
21.20000 222.000
21.22000 198.000
21.24000 208.000
21.26000 187.000
21.28000 232.000
21.30000 215.000
21.32000 224.000
21.34000 218.000
21.36000 216.000
21.38000 219.000
21.40000 237.000
21.42000 191.000
21.44000 213.000
21.46000 227.000
21.48000 195.000
21.50000 223.000
21.52000 239.000
21.54000 222.000
21.56000 208.000
21.58000 189.000
21.60000 230.000
21.62000 198.000
21.64000 200.000
21.66000 204.000
21.68000 222.000
21.70000 201.000
21.72000 223.000
21.74000 231.000
21.76000 244.000
21.78000 193.000
21.80000 209.000
21.82000 200.000
21.84000 226.000
21.86000 236.000
21.88000 213.000
21.90000 213.000
21.92000 207.000
21.94000 240.000
21.96000 236.000
21.98000 227.000
22.00000 224.000
22.02000 217.000
22.04000 253.000
22.06000 218.000
22.08000 218.000
22.10000 236.000
22.12000 201.000
22.14000 210.000
22.16000 247.000
22.18000 255.000
22.20000 214.000
22.22000 226.000
22.24000 204.000
22.26000 228.000
22.28000 223.000
22.30000 209.000
22.32000 227.000
22.34000 221.000
22.36000 247.000
22.38000 229.000
22.40000 254.000
22.42000 208.000
22.44000 239.000
22.46000 226.000
22.48000 258.000
22.50000 229.000
22.52000 230.000
22.54000 212.000
22.56000 220.000
22.58000 217.000
22.60000 238.000
22.62000 215.000
22.64000 211.000
22.66000 243.000
22.68000 228.000
22.70000 225.000
22.72000 240.000
22.74000 208.000
22.76000 248.000
22.78000 223.000
22.80000 267.000
22.82000 225.000
22.84000 216.000
22.86000 221.000
22.88000 274.000
22.90000 224.000
22.92000 227.000
22.94000 216.000
22.96000 229.000
22.98000 270.000
23.00000 229.000
23.02000 210.000
23.04000 229.000
23.06000 234.000
23.08000 233.000
23.10000 237.000
23.12000 224.000
23.14000 255.000
23.16000 247.000
23.18000 231.000
23.20000 250.000
23.22000 255.000
23.24000 236.000
23.26000 255.000
23.28000 224.000
23.30000 250.000
23.32000 245.000
23.34000 271.000
23.36000 247.000
23.38000 262.000
23.40000 227.000
23.42000 257.000
23.44000 233.000
23.46000 237.000
23.48000 245.000
23.50000 234.000
23.52000 240.000
23.54000 241.000
23.56000 239.000
23.58000 253.000
23.60000 231.000
23.62000 254.000
23.64000 250.000
23.66000 237.000
23.68000 267.000
23.70000 226.000
23.72000 258.000
23.74000 247.000
23.76000 247.000
23.78000 239.000
23.80000 254.000
23.82000 243.000
23.84000 277.000
23.86000 239.000
23.88000 279.000
23.90000 269.000
23.92000 279.000
23.94000 263.000
23.96000 298.000
23.98000 298.000
24.00000 274.000
24.02000 300.000
24.04000 303.000
24.06000 324.000
24.08000 331.000
24.10000 341.000
24.12000 392.000
24.14000 389.000
24.16000 413.000
24.18000 471.000
24.20000 480.000
24.22000 486.000
24.24000 563.000
24.26000 627.000
24.28000 646.000
24.30000 732.000
24.32000 783.000
24.34000 879.000
24.36000 916.000
24.38000 1020.000
24.40000 1057.000
24.42000 1124.000
24.44000 1166.000
24.46000 1148.000
24.48000 1132.000
24.50000 1067.000
24.52000 982.000
24.54000 886.000
24.56000 836.000
24.58000 754.000
24.60000 738.000
24.62000 609.000
24.64000 586.000
24.66000 456.000
24.68000 509.000
24.70000 439.000
24.72000 420.000
24.74000 410.000
24.76000 359.000
24.78000 327.000
24.80000 298.000
24.82000 351.000
24.84000 332.000
24.86000 309.000
24.88000 332.000
24.90000 329.000
24.92000 272.000
24.94000 295.000
24.96000 307.000
24.98000 323.000
25.00000 275.000
25.02000 250.000
25.04000 275.000
25.06000 303.000
25.08000 281.000
25.10000 261.000
25.12000 244.000
25.14000 284.000
25.16000 241.000
25.18000 278.000
25.20000 246.000
25.22000 272.000
25.24000 244.000
25.26000 281.000
25.28000 279.000
25.30000 282.000
25.32000 260.000
25.34000 255.000
25.36000 277.000
25.38000 276.000
25.40000 258.000
25.42000 267.000
25.44000 263.000
25.46000 261.000
25.48000 268.000
25.50000 235.000
25.52000 283.000
25.54000 262.000
25.56000 253.000
25.58000 261.000
25.60000 270.000
25.62000 281.000
25.64000 290.000
25.66000 227.000
25.68000 235.000
25.70000 238.000
25.72000 261.000
25.74000 258.000
25.76000 246.000
25.78000 259.000
25.80000 255.000
25.82000 267.000
25.84000 259.000
25.86000 246.000
25.88000 271.000
25.90000 262.000
25.92000 258.000
25.94000 265.000
25.96000 287.000
25.98000 264.000
26.00000 271.000
26.02000 281.000
26.04000 280.000
26.06000 255.000
26.08000 257.000
26.10000 243.000
26.12000 248.000
26.14000 267.000
26.16000 279.000
26.18000 280.000
26.20000 280.000
26.22000 262.000
26.24000 260.000
26.26000 269.000
26.28000 250.000
26.30000 260.000
26.32000 286.000
26.34000 249.000
26.36000 262.000
26.38000 278.000
26.40000 274.000
26.42000 246.000
26.44000 260.000
26.46000 284.000
26.48000 244.000
26.50000 231.000
26.52000 228.000
26.54000 249.000
26.56000 270.000
26.58000 274.000
26.60000 265.000
26.62000 270.000
26.64000 249.000
26.66000 260.000
26.68000 249.000
26.70000 280.000
26.72000 265.000
26.74000 310.000
26.76000 247.000
26.78000 260.000
26.80000 281.000
26.82000 275.000
26.84000 258.000
26.86000 293.000
26.88000 304.000
26.90000 287.000
26.92000 282.000
26.94000 277.000
26.96000 301.000
26.98000 302.000
27.00000 295.000
27.02000 316.000
27.04000 313.000
27.06000 330.000
27.08000 317.000
27.10000 265.000
27.12000 340.000
27.14000 313.000
27.16000 325.000
27.18000 343.000
27.20000 341.000
27.22000 294.000
27.24000 324.000
27.26000 335.000
27.28000 301.000
27.30000 326.000
27.32000 327.000
27.34000 323.000
27.36000 319.000
27.38000 289.000
27.40000 383.000
27.42000 308.000
27.44000 330.000
27.46000 312.000
27.48000 347.000
27.50000 400.000
27.52000 352.000
27.54000 359.000
27.56000 331.000
27.58000 359.000
27.60000 390.000
27.62000 392.000
27.64000 410.000
27.66000 406.000
27.68000 385.000
27.70000 451.000
27.72000 480.000
27.74000 475.000
27.76000 506.000
27.78000 477.000
27.80000 583.000
27.82000 595.000
27.84000 594.000
27.86000 640.000
27.88000 687.000
27.90000 765.000
27.92000 731.000
27.94000 922.000
27.96000 928.000
27.98000 1050.000
28.00000 1102.000
28.02000 1170.000
28.04000 1347.000
28.06000 1441.000
28.08000 1563.000
28.10000 1705.000
28.12000 1885.000
28.14000 2063.000
28.16000 2206.000
28.18000 2372.000
28.20000 2708.000
28.22000 2952.000
28.24000 3050.000
28.26000 3226.000
28.28000 3277.000
28.30000 3271.000
28.32000 2950.000
28.34000 2875.000
28.36000 2562.000
28.38000 2341.000
28.40000 2088.000
28.42000 1787.000
28.44000 1576.000
28.46000 1500.000
28.48000 1336.000
28.50000 1223.000
28.52000 1070.000
28.54000 926.000
28.56000 889.000
28.58000 786.000
28.60000 709.000
28.62000 650.000
28.64000 646.000
28.66000 583.000
28.68000 536.000
28.70000 509.000
28.72000 446.000
28.74000 451.000
28.76000 446.000
28.78000 420.000
28.80000 380.000
28.82000 413.000
28.84000 359.000
28.86000 358.000
28.88000 339.000
28.90000 335.000
28.92000 356.000
28.94000 298.000
28.96000 331.000
28.98000 280.000
29.00000 319.000
29.02000 273.000
29.04000 301.000
29.06000 278.000
29.08000 265.000
29.10000 275.000
29.12000 280.000
29.14000 268.000
29.16000 278.000
29.18000 266.000
29.20000 261.000
29.22000 289.000
29.24000 274.000
29.26000 259.000
29.28000 258.000
29.30000 264.000
29.32000 258.000
29.34000 268.000
29.36000 273.000
29.38000 245.000
29.40000 251.000
29.42000 216.000
29.44000 245.000
29.46000 289.000
29.48000 227.000
29.50000 237.000
29.52000 240.000
29.54000 238.000
29.56000 217.000
29.58000 232.000
29.60000 267.000
29.62000 223.000
29.64000 258.000
29.66000 238.000
29.68000 236.000
29.70000 266.000
29.72000 210.000
29.74000 236.000
29.76000 248.000
29.78000 226.000
29.80000 193.000
29.82000 220.000
29.84000 236.000
29.86000 225.000
29.88000 217.000
29.90000 230.000
29.92000 209.000
29.94000 218.000
29.96000 257.000
29.98000 243.000
30.00000 220.000
30.02000 231.000
30.04000 231.000
30.06000 218.000
30.08000 234.000
30.10000 198.000
30.12000 231.000
30.14000 261.000
30.16000 263.000
30.18000 229.000
30.20000 233.000
30.22000 253.000
30.24000 257.000
30.26000 259.000
30.28000 240.000
30.30000 239.000
30.32000 266.000
30.34000 249.000
30.36000 261.000
30.38000 232.000
30.40000 243.000
30.42000 246.000
30.44000 235.000
30.46000 250.000
30.48000 211.000
30.50000 234.000
30.52000 267.000
30.54000 228.000
30.56000 235.000
30.58000 230.000
30.60000 246.000
30.62000 254.000
30.64000 242.000
30.66000 236.000
30.68000 245.000
30.70000 238.000
30.72000 261.000
30.74000 255.000
30.76000 238.000
30.78000 270.000
30.80000 275.000
30.82000 260.000
30.84000 248.000
30.86000 219.000
30.88000 253.000
30.90000 260.000
30.92000 248.000
30.94000 245.000
30.96000 264.000
30.98000 261.000
31.00000 243.000
31.02000 261.000
31.04000 284.000
31.06000 281.000
31.08000 258.000
31.10000 271.000
31.12000 263.000
31.14000 267.000
31.16000 309.000
31.18000 313.000
31.20000 330.000
31.22000 357.000
31.24000 355.000
31.26000 306.000
31.28000 392.000
31.30000 417.000
31.32000 433.000
31.34000 456.000
31.36000 464.000
31.38000 514.000
31.40000 620.000
31.42000 633.000
31.44000 765.000
31.46000 773.000
31.48000 913.000
31.50000 1066.000
31.52000 1187.000
31.54000 1376.000
31.56000 1446.000
31.58000 1808.000
31.60000 2052.000
31.62000 2161.000
31.64000 2436.000
31.66000 2757.000
31.68000 2700.000
31.70000 2854.000
31.72000 2763.000
31.74000 2692.000
31.76000 2439.000
31.78000 2191.000
31.80000 2054.000
31.82000 1720.000
31.84000 1512.000
31.86000 1307.000
31.88000 1142.000
31.90000 915.000
31.92000 752.000
31.94000 695.000
31.96000 625.000
31.98000 529.000
32.00000 477.000
32.02000 428.000
32.04000 402.000
32.06000 359.000
32.08000 307.000
32.10000 318.000
32.12000 285.000
32.14000 286.000
32.16000 263.000
32.18000 231.000
32.20000 240.000
32.22000 250.000
32.24000 251.000
32.26000 218.000
32.28000 251.000
32.30000 230.000
32.32000 204.000
32.34000 214.000
32.36000 186.000
32.38000 186.000
32.40000 207.000
32.42000 187.000
32.44000 224.000
32.46000 198.000
32.48000 209.000
32.50000 212.000
32.52000 185.000
32.54000 194.000
32.56000 182.000
32.58000 193.000
32.60000 212.000
32.62000 187.000
32.64000 190.000
32.66000 183.000
32.68000 180.000
32.70000 188.000
32.72000 211.000
32.74000 177.000
32.76000 168.000
32.78000 177.000
32.80000 170.000
32.82000 183.000
32.84000 179.000
32.86000 197.000
32.88000 167.000
32.90000 172.000
32.92000 197.000
32.94000 172.000
32.96000 193.000
32.98000 150.000
33.00000 163.000
33.02000 170.000
33.04000 154.000
33.06000 195.000
33.08000 152.000
33.10000 186.000
33.12000 148.000
33.14000 166.000
33.16000 161.000
33.18000 173.000
33.20000 152.000
33.22000 189.000
33.24000 168.000
33.26000 158.000
33.28000 177.000
33.30000 161.000
33.32000 165.000
33.34000 160.000
33.36000 193.000
33.38000 157.000
33.40000 167.000
33.42000 162.000
33.44000 151.000
33.46000 173.000
33.48000 151.000
33.50000 165.000
33.52000 157.000
33.54000 179.000
33.56000 150.000
33.58000 186.000
33.60000 138.000
33.62000 156.000
33.64000 162.000
33.66000 150.000
33.68000 152.000
33.70000 156.000
33.72000 148.000
33.74000 171.000
33.76000 160.000
33.78000 155.000
33.80000 162.000
33.82000 148.000
33.84000 155.000
33.86000 164.000
33.88000 166.000
33.90000 171.000
33.92000 159.000
33.94000 164.000
33.96000 154.000
33.98000 159.000
34.00000 155.000
34.02000 161.000
34.04000 165.000
34.06000 174.000
34.08000 135.000
34.10000 155.000
34.12000 144.000
34.14000 158.000
34.16000 173.000
34.18000 153.000
34.20000 161.000
34.22000 113.000
34.24000 141.000
34.26000 149.000
34.28000 173.000
34.30000 164.000
34.32000 181.000
34.34000 133.000
34.36000 159.000
34.38000 167.000
34.40000 183.000
34.42000 142.000
34.44000 168.000
34.46000 131.000
34.48000 170.000
34.50000 176.000
34.52000 198.000
34.54000 192.000
34.56000 208.000
34.58000 212.000
34.60000 218.000
34.62000 230.000
34.64000 267.000
34.66000 281.000
34.68000 299.000
34.70000 345.000
34.72000 341.000
34.74000 334.000
34.76000 428.000
34.78000 476.000
34.80000 481.000
34.82000 503.000
34.84000 570.000
34.86000 541.000
34.88000 478.000
34.90000 457.000
34.92000 477.000
34.94000 416.000
34.96000 367.000
34.98000 344.000
35.00000 291.000
35.02000 276.000
35.04000 261.000
35.06000 231.000
35.08000 242.000
35.10000 200.000
35.12000 167.000
35.14000 203.000
35.16000 175.000
35.18000 183.000
35.20000 197.000
35.22000 175.000
35.24000 133.000
35.26000 151.000
35.28000 151.000
35.30000 164.000
35.32000 184.000
35.34000 162.000
35.36000 157.000
35.38000 162.000
35.40000 155.000
35.42000 173.000
35.44000 135.000
35.46000 148.000
35.48000 137.000
35.50000 139.000
35.52000 148.000
35.54000 164.000
35.56000 169.000
35.58000 150.000
35.60000 156.000
35.62000 145.000
35.64000 155.000
35.66000 133.000
35.68000 136.000
35.70000 152.000
35.72000 140.000
35.74000 142.000
35.76000 131.000
35.78000 122.000
35.80000 129.000
35.82000 134.000
35.84000 130.000
35.86000 141.000
35.88000 157.000
35.90000 154.000
35.92000 130.000
35.94000 163.000
35.96000 136.000
35.98000 133.000
36.00000 153.000
36.02000 142.000
36.04000 144.000
36.06000 134.000
36.08000 139.000
36.10000 135.000
36.12000 160.000
36.14000 136.000
36.16000 142.000
36.18000 122.000
36.20000 123.000
36.22000 137.000
36.24000 143.000
36.26000 116.000
36.28000 133.000
36.30000 150.000
36.32000 139.000
36.34000 138.000
36.36000 144.000
36.38000 130.000
36.40000 146.000
36.42000 126.000
36.44000 136.000
36.46000 117.000
36.48000 132.000
36.50000 156.000
36.52000 137.000
36.54000 136.000
36.56000 133.000
36.58000 128.000
36.60000 137.000
36.62000 116.000
36.64000 132.000
36.66000 129.000
36.68000 121.000
36.70000 137.000
36.72000 132.000
36.74000 137.000
36.76000 121.000
36.78000 141.000
36.80000 140.000
36.82000 106.000
36.84000 120.000
36.86000 124.000
36.88000 129.000
36.90000 120.000
36.92000 125.000
36.94000 133.000
36.96000 140.000
36.98000 124.000
37.00000 135.000
37.02000 124.000
37.04000 126.000
37.06000 136.000
37.08000 112.000
37.10000 117.000
37.12000 129.000
37.14000 113.000
37.16000 125.000
37.18000 93.000
37.20000 119.000
37.22000 118.000
37.24000 130.000
37.26000 118.000
37.28000 144.000
37.30000 113.000
37.32000 128.000
37.34000 126.000
37.36000 96.000
37.38000 107.000
37.40000 120.000
37.42000 119.000
37.44000 122.000
37.46000 134.000
37.48000 98.000
37.50000 112.000
37.52000 133.000
37.54000 122.000
37.56000 125.000
37.58000 135.000
37.60000 140.000
37.62000 128.000
37.64000 131.000
37.66000 116.000
37.68000 110.000
37.70000 126.000
37.72000 120.000
37.74000 133.000
37.76000 104.000
37.78000 92.000
37.80000 153.000
37.82000 117.000
37.84000 122.000
37.86000 115.000
37.88000 126.000
37.90000 124.000
37.92000 125.000
37.94000 108.000
37.96000 127.000
37.98000 103.000
38.00000 113.000
38.02000 120.000
38.04000 133.000
38.06000 131.000
38.08000 142.000
38.10000 121.000
38.12000 137.000
38.14000 133.000
38.16000 124.000
38.18000 125.000
38.20000 164.000
38.22000 132.000
38.24000 139.000
38.26000 118.000
38.28000 130.000
38.30000 126.000
38.32000 133.000
38.34000 119.000
38.36000 111.000
38.38000 151.000
38.40000 136.000
38.42000 142.000
38.44000 139.000
38.46000 116.000
38.48000 144.000
38.50000 169.000
38.52000 147.000
38.54000 155.000
38.56000 145.000
38.58000 142.000
38.60000 145.000
38.62000 157.000
38.64000 133.000
38.66000 155.000
38.68000 155.000
38.70000 145.000
38.72000 150.000
38.74000 140.000
38.76000 135.000
38.78000 144.000
38.80000 128.000
38.82000 145.000
38.84000 125.000
38.86000 130.000
38.88000 133.000
38.90000 121.000
38.92000 133.000
38.94000 158.000
38.96000 142.000
38.98000 143.000
39.00000 137.000
39.02000 138.000
39.04000 135.000
39.06000 140.000
39.08000 140.000
39.10000 142.000
39.12000 131.000
39.14000 126.000
39.16000 138.000
39.18000 129.000
39.20000 145.000
39.22000 159.000
39.24000 140.000
39.26000 143.000
39.28000 153.000
39.30000 151.000
39.32000 141.000
39.34000 150.000
39.36000 137.000
39.38000 133.000
39.40000 140.000
39.42000 144.000
39.44000 130.000
39.46000 135.000
39.48000 144.000
39.50000 159.000
39.52000 151.000
39.54000 167.000
39.56000 161.000
39.58000 166.000
39.60000 136.000
39.62000 160.000
39.64000 154.000
39.66000 169.000
39.68000 171.000
39.70000 142.000
39.72000 171.000
39.74000 150.000
39.76000 158.000
39.78000 155.000
39.80000 142.000
39.82000 159.000
39.84000 144.000
39.86000 167.000
39.88000 167.000
39.90000 200.000
39.92000 192.000
39.94000 167.000
39.96000 190.000
39.98000 198.000
40.00000 205.000
40.02000 176.000
40.04000 200.000
40.06000 222.000
40.08000 234.000
40.10000 220.000
40.12000 266.000
40.14000 273.000
40.16000 300.000
40.18000 317.000
40.20000 342.000
40.22000 422.000
40.24000 480.000
40.26000 503.000
40.28000 530.000
40.30000 742.000
40.32000 777.000
40.34000 991.000
40.36000 1045.000
40.38000 1286.000
40.40000 1410.000
40.42000 1602.000
40.44000 1543.000
40.46000 1633.000
40.48000 1589.000
40.50000 1364.000
40.52000 1324.000
40.54000 1151.000
40.56000 1053.000
40.58000 914.000
40.60000 782.000
40.62000 642.000
40.64000 568.000
40.66000 471.000
40.68000 400.000
40.70000 351.000
40.72000 352.000
40.74000 277.000
40.76000 241.000
40.78000 256.000
40.80000 241.000
40.82000 207.000
40.84000 209.000
40.86000 199.000
40.88000 202.000
40.90000 185.000
40.92000 189.000
40.94000 186.000
40.96000 187.000
40.98000 167.000
41.00000 189.000
41.02000 194.000
41.04000 171.000
41.06000 165.000
41.08000 177.000
41.10000 164.000
41.12000 196.000
41.14000 157.000
41.16000 153.000
41.18000 184.000
41.20000 175.000
41.22000 170.000
41.24000 161.000
41.26000 177.000
41.28000 154.000
41.30000 167.000
41.32000 144.000
41.34000 143.000
41.36000 146.000
41.38000 154.000
41.40000 153.000
41.42000 155.000
41.44000 152.000
41.46000 155.000
41.48000 181.000
41.50000 130.000
41.52000 149.000
41.54000 161.000
41.56000 149.000
41.58000 132.000
41.60000 143.000
41.62000 154.000
41.64000 123.000
41.66000 169.000
41.68000 144.000
41.70000 128.000
41.72000 152.000
41.74000 141.000
41.76000 158.000
41.78000 153.000
41.80000 158.000
41.82000 160.000
41.84000 157.000
41.86000 139.000
41.88000 147.000
41.90000 165.000
41.92000 125.000
41.94000 135.000
41.96000 156.000
41.98000 144.000
42.00000 168.000
42.02000 168.000
42.04000 163.000
42.06000 149.000
42.08000 156.000
42.10000 173.000
42.12000 142.000
42.14000 170.000
42.16000 176.000
42.18000 146.000
42.20000 185.000
42.22000 170.000
42.24000 175.000
42.26000 179.000
42.28000 179.000
42.30000 166.000
42.32000 182.000
42.34000 167.000
42.36000 195.000
42.38000 157.000
42.40000 172.000
42.42000 149.000
42.44000 203.000
42.46000 166.000
42.48000 185.000
42.50000 181.000
42.52000 181.000
42.54000 178.000
42.56000 206.000
42.58000 207.000
42.60000 220.000
42.62000 208.000
42.64000 217.000
42.66000 262.000
42.68000 247.000
42.70000 288.000
42.72000 314.000
42.74000 359.000
42.76000 380.000
42.78000 476.000
42.80000 531.000
42.82000 561.000
42.84000 618.000
42.86000 778.000
42.88000 915.000
42.90000 1021.000
42.92000 1176.000
42.94000 1286.000
42.96000 1387.000
42.98000 1446.000
43.00000 1511.000
43.02000 1404.000
43.04000 1370.000
43.06000 1359.000
43.08000 1186.000
43.10000 1126.000
43.12000 1001.000
43.14000 876.000
43.16000 713.000
43.18000 690.000
43.20000 584.000
43.22000 492.000
43.24000 383.000
43.26000 354.000
43.28000 336.000
43.30000 311.000
43.32000 250.000
43.34000 238.000
43.36000 227.000
43.38000 198.000
43.40000 203.000
43.42000 198.000
43.44000 174.000
43.46000 180.000
43.48000 151.000
43.50000 172.000
43.52000 152.000
43.54000 167.000
43.56000 182.000
43.58000 143.000
43.60000 136.000
43.62000 127.000
43.64000 151.000
43.66000 163.000
43.68000 141.000
43.70000 142.000
43.72000 147.000
43.74000 134.000
43.76000 137.000
43.78000 124.000
43.80000 149.000
43.82000 130.000
43.84000 141.000
43.86000 136.000
43.88000 156.000
43.90000 133.000
43.92000 137.000
43.94000 133.000
43.96000 148.000
43.98000 139.000
44.00000 119.000
44.02000 146.000
44.04000 145.000
44.06000 120.000
44.08000 133.000
44.10000 129.000
44.12000 129.000
44.14000 118.000
44.16000 123.000
44.18000 114.000
44.20000 144.000
44.22000 112.000
44.24000 119.000
44.26000 129.000
44.28000 119.000
44.30000 125.000
44.32000 142.000
44.34000 133.000
44.36000 116.000
44.38000 108.000
44.40000 131.000
44.42000 115.000
44.44000 136.000
44.46000 132.000
44.48000 123.000
44.50000 135.000
44.52000 135.000
44.54000 125.000
44.56000 112.000
44.58000 125.000
44.60000 128.000
44.62000 118.000
44.64000 112.000
44.66000 137.000
44.68000 112.000
44.70000 145.000
44.72000 122.000
44.74000 147.000
44.76000 127.000
44.78000 128.000
44.80000 114.000
44.82000 133.000
44.84000 124.000
44.86000 123.000
44.88000 125.000
44.90000 112.000
44.92000 90.000
44.94000 138.000
44.96000 116.000
44.98000 124.000
45.00000 133.000
45.02000 140.000
45.04000 125.000
45.06000 117.000
45.08000 116.000
45.10000 104.000
45.12000 108.000
45.14000 119.000
45.16000 117.000
45.18000 111.000
45.20000 123.000
45.22000 127.000
45.24000 114.000
45.26000 124.000
45.28000 133.000
45.30000 141.000
45.32000 150.000
45.34000 148.000
45.36000 132.000
45.38000 143.000
45.40000 143.000
45.42000 144.000
45.44000 146.000
45.46000 125.000
45.48000 160.000
45.50000 168.000
45.52000 150.000
45.54000 134.000
45.56000 136.000
45.58000 155.000
45.60000 134.000
45.62000 110.000
45.64000 130.000
45.66000 113.000
45.68000 101.000
45.70000 134.000
45.72000 123.000
45.74000 106.000
45.76000 117.000
45.78000 124.000
45.80000 115.000
45.82000 135.000
45.84000 100.000
45.86000 108.000
45.88000 145.000
45.90000 132.000
45.92000 128.000
45.94000 130.000
45.96000 121.000
45.98000 98.000
46.00000 88.000
46.02000 119.000
46.04000 101.000
46.06000 105.000
46.08000 109.000
46.10000 124.000
46.12000 110.000
46.14000 117.000
46.16000 113.000
46.18000 106.000
46.20000 111.000
46.22000 112.000
46.24000 102.000
46.26000 103.000
46.28000 112.000
46.30000 108.000
46.32000 107.000
46.34000 115.000
46.36000 106.000
46.38000 115.000
46.40000 118.000
46.42000 93.000
46.44000 100.000
46.46000 102.000
46.48000 102.000
46.50000 111.000
46.52000 100.000
46.54000 115.000
46.56000 122.000
46.58000 117.000
46.60000 111.000
46.62000 104.000
46.64000 104.000
46.66000 110.000
46.68000 119.000
46.70000 96.000
46.72000 104.000
46.74000 107.000
46.76000 99.000
46.78000 130.000
46.80000 117.000
46.82000 95.000
46.84000 108.000
46.86000 92.000
46.88000 98.000
46.90000 117.000
46.92000 98.000
46.94000 119.000
46.96000 121.000
46.98000 113.000
47.00000 95.000
47.02000 110.000
47.04000 132.000
47.06000 108.000
47.08000 85.000
47.10000 99.000
47.12000 100.000
47.14000 124.000
47.16000 92.000
47.18000 96.000
47.20000 116.000
47.22000 106.000
47.24000 113.000
47.26000 111.000
47.28000 108.000
47.30000 78.000
47.32000 95.000
47.34000 111.000
47.36000 95.000
47.38000 115.000
47.40000 111.000
47.42000 106.000
47.44000 109.000
47.46000 100.000
47.48000 113.000
47.50000 127.000
47.52000 121.000
47.54000 104.000
47.56000 102.000
47.58000 123.000
47.60000 115.000
47.62000 127.000
47.64000 117.000
47.66000 113.000
47.68000 128.000
47.70000 133.000
47.72000 128.000
47.74000 141.000
47.76000 143.000
47.78000 120.000
47.80000 166.000
47.82000 133.000
47.84000 151.000
47.86000 145.000
47.88000 157.000
47.90000 145.000
47.92000 125.000
47.94000 125.000
47.96000 126.000
47.98000 121.000
48.00000 111.000
48.02000 128.000
48.04000 125.000
48.06000 113.000
48.08000 107.000
48.10000 118.000
48.12000 112.000
48.14000 99.000
48.16000 111.000
48.18000 92.000
48.20000 92.000
48.22000 104.000
48.24000 94.000
48.26000 100.000
48.28000 96.000
48.30000 105.000
48.32000 118.000
48.34000 100.000
48.36000 120.000
48.38000 87.000
48.40000 116.000
48.42000 98.000
48.44000 111.000
48.46000 111.000
48.48000 92.000
48.50000 107.000
48.52000 98.000
48.54000 89.000
48.56000 65.000
48.58000 94.000
48.60000 104.000
48.62000 82.000
48.64000 108.000
48.66000 97.000
48.68000 102.000
48.70000 100.000
48.72000 99.000
48.74000 111.000
48.76000 100.000
48.78000 111.000
48.80000 121.000
48.82000 114.000
48.84000 94.000
48.86000 104.000
48.88000 98.000
48.90000 95.000
48.92000 101.000
48.94000 116.000
48.96000 111.000
48.98000 113.000
49.00000 101.000
49.02000 96.000
49.04000 113.000
49.06000 103.000
49.08000 106.000
49.10000 100.000
49.12000 110.000
49.14000 93.000
49.16000 94.000
49.18000 97.000
49.20000 105.000
49.22000 118.000
49.24000 111.000
49.26000 113.000
49.28000 104.000
49.30000 96.000
49.32000 115.000
49.34000 94.000
49.36000 100.000
49.38000 109.000
49.40000 86.000
49.42000 89.000
49.44000 107.000
49.46000 121.000
49.48000 118.000
49.50000 107.000
49.52000 105.000
49.54000 94.000
49.56000 111.000
49.58000 112.000
49.60000 119.000
49.62000 117.000
49.64000 125.000
49.66000 125.000
49.68000 111.000
49.70000 117.000
49.72000 98.000
49.74000 137.000
49.76000 134.000
49.78000 139.000
49.80000 164.000
49.82000 156.000
49.84000 173.000
49.86000 193.000
49.88000 191.000
49.90000 211.000
49.92000 242.000
49.94000 255.000
49.96000 240.000
49.98000 346.000
50.00000 339.000
50.02000 349.000
50.04000 359.000
50.06000 397.000
50.08000 380.000
50.10000 364.000
50.12000 340.000
50.14000 352.000
50.16000 332.000
50.18000 304.000
50.20000 336.000
50.22000 285.000
50.24000 268.000
50.26000 260.000
50.28000 231.000
50.30000 229.000
50.32000 181.000
50.34000 175.000
50.36000 155.000
50.38000 152.000
50.40000 159.000
50.42000 148.000
50.44000 133.000
50.46000 134.000
50.48000 138.000
50.50000 123.000
50.52000 129.000
50.54000 144.000
50.56000 115.000
50.58000 103.000
50.60000 110.000
50.62000 123.000
50.64000 99.000
50.66000 111.000
50.68000 105.000
50.70000 108.000
50.72000 108.000
50.74000 94.000
50.76000 97.000
50.78000 97.000
50.80000 81.000
50.82000 105.000
50.84000 114.000
50.86000 114.000
50.88000 116.000
50.90000 103.000
50.92000 114.000
50.94000 94.000
50.96000 106.000
50.98000 114.000
51.00000 94.000
51.02000 109.000
51.04000 110.000
51.06000 98.000
51.08000 97.000
51.10000 102.000
51.12000 87.000
51.14000 121.000
51.16000 111.000
51.18000 78.000
51.20000 112.000
51.22000 98.000
51.24000 101.000
51.26000 96.000
51.28000 93.000
51.30000 105.000
51.32000 97.000
51.34000 117.000
51.36000 89.000
51.38000 105.000
51.40000 95.000
51.42000 96.000
51.44000 91.000
51.46000 99.000
51.48000 104.000
51.50000 113.000
51.52000 128.000
51.54000 97.000
51.56000 108.000
51.58000 109.000
51.60000 130.000
51.62000 97.000
51.64000 98.000
51.66000 112.000
51.68000 109.000
51.70000 121.000
51.72000 108.000
51.74000 136.000
51.76000 98.000
51.78000 106.000
51.80000 112.000
51.82000 119.000
51.84000 110.000
51.86000 111.000
51.88000 125.000
51.90000 137.000
51.92000 124.000
51.94000 135.000
51.96000 147.000
51.98000 116.000
52.00000 152.000
52.02000 142.000
52.04000 172.000
52.06000 173.000
52.08000 199.000
52.10000 190.000
52.12000 185.000
52.14000 238.000
52.16000 270.000
52.18000 301.000
52.20000 348.000
52.22000 327.000
52.24000 371.000
52.26000 346.000
52.28000 373.000
52.30000 359.000
52.32000 343.000
52.34000 356.000
52.36000 356.000
52.38000 303.000
52.40000 290.000
52.42000 297.000
52.44000 259.000
52.46000 247.000
52.48000 198.000
52.50000 216.000
52.52000 184.000
52.54000 162.000
52.56000 145.000
52.58000 135.000
52.60000 128.000
52.62000 116.000
52.64000 131.000
52.66000 113.000
52.68000 130.000
52.70000 121.000
52.72000 124.000
52.74000 103.000
52.76000 122.000
52.78000 118.000
52.80000 106.000
52.82000 109.000
52.84000 100.000
52.86000 95.000
52.88000 93.000
52.90000 97.000
52.92000 100.000
52.94000 95.000
52.96000 102.000
52.98000 89.000
53.00000 87.000
53.02000 93.000
53.04000 92.000
53.06000 93.000
53.08000 115.000
53.10000 99.000
53.12000 100.000
53.14000 92.000
53.16000 95.000
53.18000 97.000
53.20000 106.000
53.22000 99.000
53.24000 101.000
53.26000 93.000
53.28000 78.000
53.30000 92.000
53.32000 94.000
53.34000 84.000
53.36000 93.000
53.38000 101.000
53.40000 83.000
53.42000 95.000
53.44000 121.000
53.46000 81.000
53.48000 96.000
53.50000 86.000
53.52000 106.000
53.54000 105.000
53.56000 85.000
53.58000 87.000
53.60000 73.000
53.62000 103.000
53.64000 82.000
53.66000 81.000
53.68000 85.000
53.70000 91.000
53.72000 93.000
53.74000 76.000
53.76000 85.000
53.78000 93.000
53.80000 100.000
53.82000 85.000
53.84000 75.000
53.86000 86.000
53.88000 99.000
53.90000 88.000
53.92000 80.000
53.94000 81.000
53.96000 84.000
53.98000 92.000
54.00000 97.000
54.02000 77.000
54.04000 84.000
54.06000 82.000
54.08000 96.000
54.10000 92.000
54.12000 102.000
54.14000 88.000
54.16000 115.000
54.18000 109.000
54.20000 111.000
54.22000 128.000
54.24000 120.000
54.26000 124.000
54.28000 128.000
54.30000 141.000
54.32000 159.000
54.34000 125.000
54.36000 155.000
54.38000 165.000
54.40000 138.000
54.42000 172.000
54.44000 153.000
54.46000 157.000
54.48000 157.000
54.50000 145.000
54.52000 137.000
54.54000 125.000
54.56000 156.000
54.58000 137.000
54.60000 124.000
54.62000 124.000
54.64000 118.000
54.66000 115.000
54.68000 80.000
54.70000 104.000
54.72000 94.000
54.74000 104.000
54.76000 99.000
54.78000 99.000
54.80000 96.000
54.82000 85.000
54.84000 104.000
54.86000 95.000
54.88000 111.000
54.90000 88.000
54.92000 76.000
54.94000 102.000
54.96000 96.000
54.98000 104.000
55.00000 80.000
55.02000 80.000
55.04000 65.000
55.06000 99.000
55.08000 94.000
55.10000 102.000
55.12000 70.000
55.14000 74.000
55.16000 83.000
55.18000 79.000
55.20000 90.000
55.22000 66.000
55.24000 77.000
55.26000 63.000
55.28000 83.000
55.30000 77.000
55.32000 92.000
55.34000 96.000
55.36000 80.000
55.38000 91.000
55.40000 91.000
55.42000 87.000
55.44000 89.000
55.46000 88.000
55.48000 70.000
55.50000 83.000
55.52000 79.000
55.54000 82.000
55.56000 81.000
55.58000 87.000
55.60000 70.000
55.62000 84.000
55.64000 79.000
55.66000 86.000
55.68000 72.000
55.70000 94.000
55.72000 87.000
55.74000 70.000
55.76000 66.000
55.78000 92.000
55.80000 86.000
55.82000 71.000
55.84000 73.000
55.86000 114.000
55.88000 94.000
55.90000 83.000
55.92000 97.000
55.94000 89.000
55.96000 78.000
55.98000 79.000
56.00000 94.000
56.02000 76.000
56.04000 89.000
56.06000 77.000
56.08000 77.000
56.10000 71.000
56.12000 74.000
56.14000 79.000
56.16000 70.000
56.18000 76.000
56.20000 80.000
56.22000 73.000
56.24000 75.000
56.26000 89.000
56.28000 90.000
56.30000 80.000
56.32000 80.000
56.34000 77.000
56.36000 89.000
56.38000 97.000
56.40000 103.000
56.42000 81.000
56.44000 75.000
56.46000 86.000
56.48000 78.000
56.50000 96.000
56.52000 81.000
56.54000 80.000
56.56000 77.000
56.58000 59.000
56.60000 74.000
56.62000 86.000
56.64000 81.000
56.66000 93.000
56.68000 81.000
56.70000 86.000
56.72000 68.000
56.74000 67.000
56.76000 101.000
56.78000 80.000
56.80000 92.000
56.82000 91.000
56.84000 84.000
56.86000 92.000
56.88000 100.000
56.90000 68.000
56.92000 75.000
56.94000 85.000
56.96000 107.000
56.98000 74.000
57.00000 91.000
57.02000 77.000
57.04000 88.000
57.06000 79.000
57.08000 70.000
57.10000 77.000
57.12000 85.000
57.14000 84.000
57.16000 106.000
57.18000 104.000
57.20000 100.000
57.22000 77.000
57.24000 100.000
57.26000 76.000
57.28000 96.000
57.30000 77.000
57.32000 83.000
57.34000 95.000
57.36000 74.000
57.38000 90.000
57.40000 71.000
57.42000 92.000
57.44000 84.000
57.46000 75.000
57.48000 90.000
57.50000 90.000
57.52000 92.000
57.54000 85.000
57.56000 86.000
57.58000 84.000
57.60000 90.000
57.62000 84.000
57.64000 88.000
57.66000 88.000
57.68000 91.000
57.70000 79.000
57.72000 85.000
57.74000 88.000
57.76000 90.000
57.78000 85.000
57.80000 77.000
57.82000 86.000
57.84000 81.000
57.86000 86.000
57.88000 88.000
57.90000 81.000
57.92000 85.000
57.94000 78.000
57.96000 90.000
57.98000 90.000
58.00000 94.000
58.02000 88.000
58.04000 98.000
58.06000 118.000
58.08000 88.000
58.10000 113.000
58.12000 102.000
58.14000 117.000
58.16000 111.000
58.18000 110.000
58.20000 122.000
58.22000 101.000
58.24000 117.000
58.26000 109.000
58.28000 123.000
58.30000 127.000
58.32000 142.000
58.34000 124.000
58.36000 139.000
58.38000 136.000
58.40000 149.000
58.42000 162.000
58.44000 170.000
58.46000 179.000
58.48000 184.000
58.50000 152.000
58.52000 159.000
58.54000 156.000
58.56000 159.000
58.58000 164.000
58.60000 141.000
58.62000 159.000
58.64000 136.000
58.66000 145.000
58.68000 146.000
58.70000 145.000
58.72000 113.000
58.74000 132.000
58.76000 111.000
58.78000 116.000
58.80000 140.000
58.82000 112.000
58.84000 112.000
58.86000 97.000
58.88000 112.000
58.90000 91.000
58.92000 91.000
58.94000 89.000
58.96000 87.000
58.98000 103.000
59.00000 102.000
59.02000 98.000
59.04000 103.000
59.06000 122.000
59.08000 75.000
59.10000 86.000
59.12000 102.000
59.14000 102.000
59.16000 109.000
59.18000 97.000
59.20000 93.000
59.22000 87.000
59.24000 103.000
59.26000 110.000
59.28000 84.000
59.30000 93.000
59.32000 89.000
59.34000 86.000
59.36000 92.000
59.38000 97.000
59.40000 101.000
59.42000 99.000
59.44000 96.000
59.46000 88.000
59.48000 106.000
59.50000 92.000
59.52000 84.000
59.54000 107.000
59.56000 83.000
59.58000 83.000
59.60000 97.000
59.62000 96.000
59.64000 83.000
59.66000 92.000
59.68000 99.000
59.70000 99.000
59.72000 110.000
59.74000 107.000
59.76000 111.000
59.78000 115.000
59.80000 73.000
59.82000 86.000
59.84000 108.000
59.86000 87.000
59.88000 116.000
59.90000 77.000
59.92000 98.000
59.94000 103.000
59.96000 89.000
