5.00000 733.000
5.02000 782.000
5.04000 774.000
5.06000 807.000
5.08000 813.000
5.10000 768.000
5.12000 772.000
5.14000 795.000
5.16000 793.000
5.18000 749.000
5.20000 766.000
5.22000 812.000
5.24000 756.000
5.26000 772.000
5.28000 776.000
5.30000 755.000
5.32000 782.000
5.34000 724.000
5.36000 758.000
5.38000 721.000
5.40000 760.000
5.42000 682.000
5.44000 720.000
5.46000 702.000
5.48000 691.000
5.50000 718.000
5.52000 755.000
5.54000 733.000
5.56000 717.000
5.58000 701.000
5.60000 720.000
5.62000 702.000
5.64000 692.000
5.66000 717.000
5.68000 691.000
5.70000 788.000
5.72000 667.000
5.74000 666.000
5.76000 680.000
5.78000 669.000
5.80000 652.000
5.82000 711.000
5.84000 673.000
5.86000 677.000
5.88000 660.000
5.90000 656.000
5.92000 635.000
5.94000 623.000
5.96000 693.000
5.98000 625.000
6.00000 667.000
6.02000 632.000
6.04000 668.000
6.06000 655.000
6.08000 647.000
6.10000 663.000
6.12000 633.000
6.14000 652.000
6.16000 640.000
6.18000 639.000
6.20000 619.000
6.22000 618.000
6.24000 606.000
6.26000 618.000
6.28000 620.000
6.30000 648.000
6.32000 651.000
6.34000 593.000
6.36000 678.000
6.38000 591.000
6.40000 603.000
6.42000 633.000
6.44000 591.000
6.46000 632.000
6.48000 626.000
6.50000 588.000
6.52000 648.000
6.54000 586.000
6.56000 653.000
6.58000 574.000
6.60000 540.000
6.62000 590.000
6.64000 626.000
6.66000 618.000
6.68000 574.000
6.70000 554.000
6.72000 548.000
6.74000 607.000
6.76000 557.000
6.78000 558.000
6.80000 586.000
6.82000 573.000
6.84000 588.000
6.86000 570.000
6.88000 540.000
6.90000 577.000
6.92000 602.000
6.94000 592.000
6.96000 592.000
6.98000 589.000
7.00000 593.000
7.02000 606.000
7.04000 559.000
7.06000 571.000
7.08000 630.000
7.10000 551.000
7.12000 560.000
7.14000 572.000
7.16000 533.000
7.18000 584.000
7.20000 560.000
7.22000 541.000
7.24000 557.000
7.26000 541.000
7.28000 579.000
7.30000 499.000
7.32000 551.000
7.34000 495.000
7.36000 502.000
7.38000 538.000
7.40000 524.000
7.42000 549.000
7.44000 502.000
7.46000 522.000
7.48000 530.000
7.50000 483.000
7.52000 539.000
7.54000 493.000
7.56000 520.000
7.58000 501.000
7.60000 516.000
7.62000 525.000
7.64000 538.000
7.66000 497.000
7.68000 510.000
7.70000 483.000
7.72000 500.000
7.74000 497.000
7.76000 500.000
7.78000 527.000
7.80000 494.000
7.82000 498.000
7.84000 510.000
7.86000 479.000
7.88000 538.000
7.90000 467.000
7.92000 501.000
7.94000 487.000
7.96000 511.000
7.98000 533.000
8.00000 462.000
8.02000 532.000
8.04000 486.000
8.06000 506.000
8.08000 474.000
8.10000 477.000
8.12000 480.000
8.14000 477.000
8.16000 444.000
8.18000 495.000
8.20000 491.000
8.22000 498.000
8.24000 463.000
8.26000 435.000
8.28000 515.000
8.30000 486.000
8.32000 454.000
8.34000 408.000
8.36000 462.000
8.38000 433.000
8.40000 493.000
8.42000 466.000
8.44000 490.000
8.46000 448.000
8.48000 484.000
8.50000 458.000
8.52000 460.000
8.54000 444.000
8.56000 469.000
8.58000 472.000
8.60000 448.000
8.62000 445.000
8.64000 440.000
8.66000 436.000
8.68000 478.000
8.70000 438.000
8.72000 466.000
8.74000 433.000
8.76000 436.000
8.78000 484.000
8.80000 398.000
8.82000 434.000
8.84000 440.000
8.86000 416.000
8.88000 451.000
8.90000 461.000
8.92000 427.000
8.94000 433.000
8.96000 434.000
8.98000 443.000
9.00000 419.000
9.02000 411.000
9.04000 406.000
9.06000 433.000
9.08000 413.000
9.10000 444.000
9.12000 412.000
9.14000 451.000
9.16000 403.000
9.18000 438.000
9.20000 419.000
9.22000 394.000
9.24000 395.000
9.26000 413.000
9.28000 409.000
9.30000 401.000
9.32000 420.000
9.34000 436.000
9.36000 422.000
9.38000 443.000
9.40000 426.000
9.42000 409.000
9.44000 395.000
9.46000 385.000
9.48000 412.000
9.50000 401.000
9.52000 427.000
9.54000 386.000
9.56000 409.000
9.58000 406.000
9.60000 443.000
9.62000 411.000
9.64000 395.000
9.66000 391.000
9.68000 366.000
9.70000 387.000
9.72000 383.000
9.74000 401.000
9.76000 391.000
9.78000 409.000
9.80000 406.000
9.82000 403.000
9.84000 382.000
9.86000 396.000
9.88000 388.000
9.90000 426.000
9.92000 360.000
9.94000 402.000
9.96000 379.000
9.98000 374.000
10.00000 386.000
10.02000 382.000
10.04000 365.000
10.06000 377.000
10.08000 396.000
10.10000 375.000
10.12000 376.000
10.14000 374.000
10.16000 414.000
10.18000 403.000
10.20000 387.000
10.22000 362.000
10.24000 367.000
10.26000 383.000
10.28000 383.000
10.30000 390.000
10.32000 346.000
10.34000 374.000
10.36000 409.000
10.38000 384.000
10.40000 403.000
10.42000 398.000
10.44000 347.000
10.46000 352.000
10.48000 344.000
10.50000 350.000
10.52000 359.000
10.54000 368.000
10.56000 376.000
10.58000 369.000
10.60000 359.000
10.62000 366.000
10.64000 359.000
10.66000 388.000
10.68000 364.000
10.70000 368.000
10.72000 356.000
10.74000 335.000
10.76000 380.000
10.78000 326.000
10.80000 349.000
10.82000 341.000
10.84000 371.000
10.86000 347.000
10.88000 360.000
10.90000 341.000
10.92000 395.000
10.94000 373.000
10.96000 366.000
10.98000 358.000
11.00000 318.000
11.02000 313.000
11.04000 350.000
11.06000 382.000
11.08000 336.000
11.10000 340.000
11.12000 386.000
11.14000 377.000
11.16000 365.000
11.18000 385.000
11.20000 373.000
11.22000 358.000
11.24000 349.000
11.26000 360.000
11.28000 335.000
11.30000 373.000
11.32000 374.000
11.34000 410.000
11.36000 383.000
11.38000 384.000
11.40000 359.000
11.42000 453.000
11.44000 416.000
11.46000 397.000
11.48000 407.000
11.50000 445.000
11.52000 429.000
11.54000 468.000
11.56000 489.000
11.58000 466.000
11.60000 476.000
11.62000 479.000
11.64000 470.000
11.66000 433.000
11.68000 435.000
11.70000 418.000
11.72000 416.000
11.74000 444.000
11.76000 432.000
11.78000 445.000
11.80000 449.000
11.82000 451.000
11.84000 429.000
11.86000 387.000
11.88000 436.000
11.90000 425.000
11.92000 440.000
11.94000 448.000
11.96000 425.000
11.98000 452.000
12.00000 432.000
12.02000 471.000
12.04000 428.000
12.06000 480.000
12.08000 474.000
12.10000 462.000
12.12000 481.000
12.14000 474.000
12.16000 506.000
12.18000 514.000
12.20000 576.000
12.22000 518.000
12.24000 546.000
12.26000 523.000
12.28000 597.000
12.30000 569.000
12.32000 597.000
12.34000 586.000
12.36000 617.000
12.38000 623.000
12.40000 679.000
12.42000 662.000
12.44000 703.000
12.46000 738.000
12.48000 816.000
12.50000 800.000
12.52000 933.000
12.54000 939.000
12.56000 1048.000
12.58000 1080.000
12.60000 1168.000
12.62000 1176.000
12.64000 1230.000
12.66000 1211.000
12.68000 1210.000
12.70000 1280.000
12.72000 1173.000
12.74000 1042.000
12.76000 947.000
12.78000 828.000
12.80000 742.000
12.82000 663.000
12.84000 635.000
12.86000 619.000
12.88000 499.000
12.90000 472.000
12.92000 520.000
12.94000 482.000
12.96000 470.000
12.98000 442.000
13.00000 456.000
13.02000 425.000
13.04000 418.000
13.06000 413.000
13.08000 438.000
13.10000 440.000
13.12000 416.000
13.14000 409.000
13.16000 452.000
13.18000 401.000
13.20000 439.000
13.22000 456.000
13.24000 434.000
13.26000 462.000
13.28000 421.000
13.30000 474.000
13.32000 450.000
13.34000 460.000
13.36000 500.000
13.38000 495.000
13.40000 491.000
13.42000 511.000
13.44000 488.000
13.46000 536.000
13.48000 481.000
13.50000 497.000
13.52000 583.000
13.54000 539.000
13.56000 607.000
13.58000 591.000
13.60000 613.000
13.62000 598.000
13.64000 661.000
13.66000 656.000
13.68000 698.000
13.70000 733.000
13.72000 747.000
13.74000 790.000
13.76000 839.000
13.78000 866.000
13.80000 930.000
13.82000 943.000
13.84000 1033.000
13.86000 1035.000
13.88000 1101.000
13.90000 1169.000
13.92000 1238.000
13.94000 1369.000
13.96000 1491.000
13.98000 1610.000
14.00000 1767.000
14.02000 1848.000
14.04000 1971.000
14.06000 2037.000
14.08000 2058.000
14.10000 1926.000
14.12000 1799.000
14.14000 1603.000
14.16000 1278.000
14.18000 1112.000
14.20000 864.000
14.22000 757.000
14.24000 638.000
14.26000 581.000
14.28000 516.000
14.30000 462.000
14.32000 436.000
14.34000 450.000
14.36000 389.000
14.38000 390.000
14.40000 362.000
14.42000 362.000
14.44000 372.000
14.46000 342.000
14.48000 347.000
14.50000 349.000
14.52000 332.000
14.54000 318.000
14.56000 284.000
14.58000 347.000
14.60000 337.000
14.62000 327.000
14.64000 316.000
14.66000 314.000
14.68000 306.000
14.70000 303.000
14.72000 279.000
14.74000 324.000
14.76000 266.000
14.78000 316.000
14.80000 297.000
14.82000 283.000
14.84000 278.000
14.86000 254.000
14.88000 277.000
14.90000 275.000
14.92000 255.000
14.94000 269.000
14.96000 285.000
14.98000 265.000
15.00000 301.000
15.02000 289.000
15.04000 278.000
15.06000 298.000
15.08000 252.000
15.10000 262.000
15.12000 260.000
15.14000 255.000
15.16000 278.000
15.18000 272.000
15.20000 231.000
15.22000 250.000
15.24000 231.000
15.26000 267.000
15.28000 265.000
15.30000 275.000
15.32000 261.000
15.34000 278.000
15.36000 267.000
15.38000 238.000
15.40000 259.000
15.42000 264.000
15.44000 251.000
15.46000 270.000
15.48000 256.000
15.50000 229.000
15.52000 237.000
15.54000 269.000
15.56000 240.000
15.58000 290.000
15.60000 236.000
15.62000 249.000
15.64000 268.000
15.66000 252.000
15.68000 248.000
15.70000 250.000
15.72000 243.000
15.74000 265.000
15.76000 279.000
15.78000 237.000
15.80000 224.000
15.82000 213.000
15.84000 257.000
15.86000 226.000
15.88000 231.000
15.90000 253.000
15.92000 278.000
15.94000 264.000
15.96000 241.000
15.98000 260.000
16.00000 254.000
16.02000 246.000
16.04000 251.000
16.06000 232.000
16.08000 229.000
16.10000 247.000
16.12000 239.000
16.14000 232.000
16.16000 232.000
16.18000 230.000
16.20000 260.000
16.22000 240.000
16.24000 260.000
16.26000 285.000
16.28000 265.000
16.30000 249.000
16.32000 254.000
16.34000 243.000
16.36000 241.000
16.38000 251.000
16.40000 277.000
16.42000 232.000
16.44000 225.000
16.46000 239.000
16.48000 264.000
16.50000 259.000
16.52000 256.000
16.54000 198.000
16.56000 258.000
16.58000 230.000
16.60000 244.000
16.62000 252.000
16.64000 254.000
16.66000 228.000
16.68000 250.000
16.70000 234.000
16.72000 250.000
16.74000 264.000
16.76000 235.000
16.78000 265.000
16.80000 262.000
16.82000 220.000
16.84000 244.000
16.86000 253.000
16.88000 255.000
16.90000 244.000
16.92000 228.000
16.94000 212.000
16.96000 217.000
16.98000 240.000
17.00000 238.000
17.02000 196.000
17.04000 236.000
17.06000 235.000
17.08000 235.000
17.10000 246.000
17.12000 218.000
17.14000 226.000
17.16000 233.000
17.18000 241.000
17.20000 231.000
17.22000 244.000
17.24000 235.000
17.26000 246.000
17.28000 235.000
17.30000 248.000
17.32000 242.000
17.34000 243.000
17.36000 231.000
17.38000 226.000
17.40000 253.000
17.42000 237.000
17.44000 226.000
17.46000 223.000
17.48000 215.000
17.50000 251.000
17.52000 240.000
17.54000 230.000
17.56000 218.000
17.58000 212.000
17.60000 238.000
17.62000 220.000
17.64000 223.000
17.66000 238.000
17.68000 220.000
17.70000 254.000
17.72000 213.000
17.74000 240.000
17.76000 249.000
17.78000 236.000
17.80000 216.000
17.82000 226.000
17.84000 235.000
17.86000 240.000
17.88000 230.000
17.90000 216.000
17.92000 219.000
17.94000 248.000
17.96000 244.000
17.98000 233.000
18.00000 209.000
18.02000 231.000
18.04000 264.000
18.06000 255.000
18.08000 223.000
18.10000 255.000
18.12000 230.000
18.14000 246.000
18.16000 221.000
18.18000 279.000
18.20000 217.000
18.22000 236.000
18.24000 231.000
18.26000 224.000
18.28000 211.000
18.30000 222.000
18.32000 242.000
18.34000 229.000
18.36000 242.000
18.38000 275.000
18.40000 249.000
18.42000 250.000
18.44000 230.000
18.46000 226.000
18.48000 226.000
18.50000 253.000
18.52000 206.000
18.54000 216.000
18.56000 249.000
18.58000 225.000
18.60000 230.000
18.62000 195.000
18.64000 183.000
18.66000 267.000
18.68000 253.000
18.70000 212.000
18.72000 250.000
18.74000 244.000
18.76000 246.000
18.78000 245.000
18.80000 235.000
18.82000 245.000
18.84000 245.000
18.86000 240.000
18.88000 241.000
18.90000 224.000
18.92000 245.000
18.94000 250.000
18.96000 247.000
18.98000 254.000
19.00000 233.000
19.02000 242.000
19.04000 222.000
19.06000 205.000
19.08000 241.000
19.10000 268.000
19.12000 259.000
19.14000 258.000
19.16000 253.000
19.18000 228.000
19.20000 252.000
19.22000 260.000
19.24000 247.000
19.26000 252.000
19.28000 249.000
19.30000 253.000
19.32000 248.000
19.34000 253.000
19.36000 246.000
19.38000 283.000
19.40000 237.000
19.42000 250.000
19.44000 282.000
19.46000 266.000
19.48000 273.000
19.50000 262.000
19.52000 309.000
19.54000 260.000
19.56000 306.000
19.58000 318.000
19.60000 291.000
19.62000 309.000
19.64000 336.000
19.66000 355.000
19.68000 362.000
19.70000 337.000
19.72000 344.000
19.74000 419.000
19.76000 378.000
19.78000 389.000
19.80000 498.000
19.82000 479.000
19.84000 549.000
19.86000 595.000
19.88000 638.000
19.90000 750.000
19.92000 747.000
19.94000 827.000
19.96000 810.000
19.98000 848.000
20.00000 754.000
20.02000 736.000
20.04000 671.000
20.06000 557.000
20.08000 516.000
20.10000 472.000
20.12000 434.000
20.14000 373.000
20.16000 375.000
20.18000 365.000
20.20000 306.000
20.22000 310.000
20.24000 282.000
20.26000 270.000
20.28000 290.000
20.30000 273.000
20.32000 245.000
20.34000 258.000
20.36000 252.000
20.38000 234.000
20.40000 264.000
20.42000 272.000
20.44000 246.000
20.46000 252.000
20.48000 246.000
20.50000 252.000
20.52000 258.000
20.54000 275.000
20.56000 249.000
20.58000 231.000
20.60000 245.000
20.62000 259.000
20.64000 282.000
20.66000 261.000
20.68000 248.000
20.70000 275.000
20.72000 241.000
20.74000 259.000
20.76000 218.000
20.78000 249.000
20.80000 236.000
20.82000 253.000
20.84000 235.000
20.86000 237.000
20.88000 235.000
20.90000 250.000
20.92000 263.000
20.94000 256.000
20.96000 245.000
20.98000 226.000
21.00000 229.000
21.02000 279.000
21.04000 240.000
21.06000 241.000
21.08000 257.000
21.10000 224.000
21.12000 249.000
21.14000 219.000
21.16000 247.000
21.18000 214.000
21.20000 221.000
21.22000 269.000
21.24000 246.000
21.26000 227.000
21.28000 232.000
21.30000 239.000
21.32000 244.000
21.34000 230.000
21.36000 261.000
21.38000 245.000
21.40000 237.000
21.42000 228.000
21.44000 250.000
21.46000 271.000
21.48000 259.000
21.50000 246.000
21.52000 251.000
21.54000 235.000
21.56000 237.000
21.58000 245.000
21.60000 234.000
21.62000 246.000
21.64000 221.000
21.66000 256.000
21.68000 235.000
21.70000 260.000
21.72000 215.000
21.74000 265.000
21.76000 250.000
21.78000 245.000
21.80000 283.000
21.82000 248.000
21.84000 223.000
21.86000 238.000
21.88000 256.000
21.90000 270.000
21.92000 269.000
21.94000 267.000
21.96000 267.000
21.98000 252.000
22.00000 283.000
22.02000 293.000
22.04000 264.000
22.06000 269.000
22.08000 257.000
22.10000 285.000
22.12000 285.000
22.14000 250.000
22.16000 291.000
22.18000 259.000
22.20000 261.000
22.22000 251.000
22.24000 255.000
22.26000 244.000
22.28000 250.000
22.30000 243.000
22.32000 249.000
22.34000 283.000
22.36000 255.000
22.38000 276.000
22.40000 252.000
22.42000 238.000
22.44000 274.000
22.46000 261.000
22.48000 258.000
22.50000 250.000
22.52000 275.000
22.54000 258.000
22.56000 254.000
22.58000 247.000
22.60000 241.000
22.62000 282.000
22.64000 255.000
22.66000 250.000
22.68000 252.000
22.70000 256.000
22.72000 248.000
22.74000 255.000
22.76000 261.000
22.78000 237.000
22.80000 266.000
22.82000 288.000
22.84000 277.000
22.86000 261.000
22.88000 288.000
22.90000 249.000
22.92000 255.000
22.94000 255.000
22.96000 287.000
22.98000 283.000
23.00000 256.000
23.02000 274.000
23.04000 289.000
23.06000 248.000
23.08000 261.000
23.10000 270.000
23.12000 291.000
23.14000 267.000
23.16000 263.000
23.18000 288.000
23.20000 267.000
23.22000 283.000
23.24000 246.000
23.26000 254.000
23.28000 240.000
23.30000 271.000
23.32000 289.000
23.34000 296.000
23.36000 255.000
23.38000 261.000
23.40000 288.000
23.42000 281.000
23.44000 284.000
23.46000 288.000
23.48000 262.000
23.50000 253.000
23.52000 245.000
23.54000 270.000
23.56000 277.000
23.58000 267.000
23.60000 276.000
23.62000 248.000
23.64000 270.000
23.66000 264.000
23.68000 267.000
23.70000 292.000
23.72000 239.000
23.74000 260.000
23.76000 261.000
23.78000 250.000
23.80000 265.000
23.82000 276.000
23.84000 252.000
23.86000 276.000
23.88000 267.000
23.90000 274.000
23.92000 304.000
23.94000 272.000
23.96000 268.000
23.98000 293.000
24.00000 288.000
24.02000 296.000
24.04000 322.000
24.06000 340.000
24.08000 312.000
24.10000 305.000
24.12000 316.000
24.14000 354.000
24.16000 349.000
24.18000 352.000
24.20000 350.000
24.22000 381.000
24.24000 446.000
24.26000 400.000
24.28000 462.000
24.30000 471.000
24.32000 518.000
24.34000 588.000
24.36000 627.000
24.38000 701.000
24.40000 781.000
24.42000 831.000
24.44000 919.000
24.46000 994.000
24.48000 1108.000
24.50000 1097.000
24.52000 1132.000
24.54000 1019.000
24.56000 931.000
24.58000 857.000
24.60000 757.000
24.62000 642.000
24.64000 573.000
24.66000 513.000
24.68000 451.000
24.70000 423.000
24.72000 416.000
24.74000 354.000
24.76000 377.000
24.78000 337.000
24.80000 342.000
24.82000 343.000
24.84000 331.000
24.86000 322.000
24.88000 324.000
24.90000 290.000
24.92000 291.000
24.94000 327.000
24.96000 305.000
24.98000 314.000
25.00000 302.000
25.02000 311.000
25.04000 341.000
25.06000 316.000
25.08000 309.000
25.10000 287.000
25.12000 273.000
25.14000 280.000
25.16000 275.000
25.18000 295.000
25.20000 288.000
25.22000 335.000
25.24000 278.000
25.26000 280.000
25.28000 295.000
25.30000 273.000
25.32000 297.000
25.34000 289.000
25.36000 308.000
25.38000 302.000
25.40000 305.000
25.42000 295.000
25.44000 307.000
25.46000 300.000
25.48000 276.000
25.50000 305.000
25.52000 285.000
25.54000 320.000
25.56000 292.000
25.58000 271.000
25.60000 288.000
25.62000 284.000
25.64000 304.000
25.66000 281.000
25.68000 290.000
25.70000 272.000
25.72000 333.000
25.74000 312.000
25.76000 291.000
25.78000 295.000
25.80000 294.000
25.82000 301.000
25.84000 273.000
25.86000 324.000
25.88000 307.000
25.90000 287.000
25.92000 326.000
25.94000 283.000
25.96000 303.000
25.98000 313.000
26.00000 319.000
26.02000 313.000
26.04000 259.000
26.06000 302.000
26.08000 334.000
26.10000 298.000
26.12000 263.000
26.14000 310.000
26.16000 286.000
26.18000 300.000
26.20000 319.000
26.22000 316.000
26.24000 300.000
26.26000 285.000
26.28000 287.000
26.30000 280.000
26.32000 322.000
26.34000 282.000
26.36000 320.000
26.38000 307.000
26.40000 302.000
26.42000 308.000
26.44000 308.000
26.46000 264.000
26.48000 283.000
26.50000 281.000
26.52000 279.000
26.54000 272.000
26.56000 280.000
26.58000 315.000
26.60000 285.000
26.62000 282.000
26.64000 269.000
26.66000 307.000
26.68000 287.000
26.70000 302.000
26.72000 281.000
26.74000 263.000
26.76000 291.000
26.78000 289.000
26.80000 286.000
26.82000 254.000
26.84000 299.000
26.86000 296.000
26.88000 305.000
26.90000 280.000
26.92000 303.000
26.94000 308.000
26.96000 301.000
26.98000 286.000
27.00000 292.000
27.02000 287.000
27.04000 279.000
27.06000 301.000
27.08000 305.000
27.10000 288.000
27.12000 314.000
27.14000 317.000
27.16000 309.000
27.18000 330.000
27.20000 327.000
27.22000 319.000
27.24000 268.000
27.26000 327.000
27.28000 348.000
27.30000 313.000
27.32000 328.000
27.34000 332.000
27.36000 322.000
27.38000 313.000
27.40000 302.000
27.42000 292.000
27.44000 294.000
27.46000 313.000
27.48000 331.000
27.50000 329.000
27.52000 342.000
27.54000 340.000
27.56000 336.000
27.58000 320.000
27.60000 359.000
27.62000 317.000
27.64000 302.000
27.66000 353.000
27.68000 348.000
27.70000 336.000
27.72000 375.000
27.74000 371.000
27.76000 329.000
27.78000 369.000
27.80000 383.000
27.82000 368.000
27.84000 373.000
27.86000 361.000
27.88000 424.000
27.90000 473.000
27.92000 410.000
27.94000 467.000
27.96000 454.000
27.98000 500.000
28.00000 498.000
28.02000 510.000
28.04000 555.000
28.06000 605.000
28.08000 615.000
28.10000 670.000
28.12000 729.000
28.14000 818.000
28.16000 891.000
28.18000 986.000
28.20000 1027.000
28.22000 1178.000
28.24000 1311.000
28.26000 1410.000
28.28000 1609.000
28.30000 1860.000
28.32000 2068.000
28.34000 2228.000
28.36000 2353.000
28.38000 2166.000
28.40000 2053.000
28.42000 1880.000
28.44000 1682.000
28.46000 1421.000
28.48000 1188.000
28.50000 963.000
28.52000 835.000
28.54000 736.000
28.56000 693.000
28.58000 564.000
28.60000 496.000
28.62000 473.000
28.64000 443.000
28.66000 392.000
28.68000 394.000
28.70000 403.000
28.72000 374.000
28.74000 354.000
28.76000 364.000
28.78000 323.000
28.80000 330.000
28.82000 329.000
28.84000 318.000
28.86000 343.000
28.88000 319.000
28.90000 339.000
28.92000 307.000
28.94000 322.000
28.96000 342.000
28.98000 281.000
29.00000 300.000
29.02000 311.000
29.04000 288.000
29.06000 284.000
29.08000 315.000
29.10000 319.000
29.12000 284.000
29.14000 295.000
29.16000 283.000
29.18000 318.000
29.20000 295.000
29.22000 264.000
29.24000 272.000
29.26000 302.000
29.28000 304.000
29.30000 291.000
29.32000 271.000
29.34000 292.000
29.36000 288.000
29.38000 295.000
29.40000 290.000
29.42000 280.000
29.44000 273.000
29.46000 271.000
29.48000 274.000
29.50000 268.000
29.52000 266.000
29.54000 314.000
29.56000 282.000
29.58000 283.000
29.60000 280.000
29.62000 252.000
29.64000 260.000
29.66000 274.000
29.68000 264.000
29.70000 286.000
29.72000 249.000
29.74000 283.000
29.76000 268.000
29.78000 273.000
29.80000 254.000
29.82000 267.000
29.84000 264.000
29.86000 273.000
29.88000 244.000
29.90000 272.000
29.92000 271.000
29.94000 298.000
29.96000 269.000
29.98000 276.000
30.00000 282.000
30.02000 266.000
30.04000 286.000
30.06000 234.000
30.08000 276.000
30.10000 291.000
30.12000 235.000
30.14000 293.000
30.16000 288.000
30.18000 291.000
30.20000 262.000
30.22000 273.000
30.24000 270.000
30.26000 294.000
30.28000 286.000
30.30000 258.000
30.32000 302.000
30.34000 322.000
30.36000 278.000
30.38000 299.000
30.40000 250.000
30.42000 343.000
30.44000 297.000
30.46000 282.000
30.48000 324.000
30.50000 283.000
30.52000 281.000
30.54000 262.000
30.56000 308.000
30.58000 286.000
30.60000 300.000
30.62000 273.000
30.64000 267.000
30.66000 298.000
30.68000 269.000
30.70000 277.000
30.72000 264.000
30.74000 269.000
30.76000 275.000
30.78000 309.000
30.80000 283.000
30.82000 309.000
30.84000 296.000
30.86000 279.000
30.88000 322.000
30.90000 264.000
30.92000 287.000
30.94000 305.000
30.96000 344.000
30.98000 338.000
31.00000 311.000
31.02000 295.000
31.04000 324.000
31.06000 321.000
31.08000 312.000
31.10000 317.000
31.12000 372.000
31.14000 310.000
31.16000 310.000
31.18000 351.000
31.20000 337.000
31.22000 337.000
31.24000 348.000
31.26000 378.000
31.28000 381.000
31.30000 462.000
31.32000 424.000
31.34000 429.000
31.36000 446.000
31.38000 454.000
31.40000 493.000
31.42000 517.000
31.44000 487.000
31.46000 576.000
31.48000 607.000
31.50000 650.000
31.52000 741.000
31.54000 768.000
31.56000 877.000
31.58000 983.000
31.60000 1115.000
31.62000 1266.000
31.64000 1349.000
31.66000 1544.000
31.68000 1761.000
31.70000 2010.000
31.72000 2227.000
31.74000 2576.000
31.76000 2825.000
31.78000 2910.000
31.80000 2986.000
31.82000 2803.000
31.84000 2505.000
31.86000 2314.000
31.88000 2041.000
31.90000 1727.000
31.92000 1494.000
31.94000 1164.000
31.96000 1013.000
31.98000 834.000
32.00000 759.000
32.02000 630.000
32.04000 567.000
32.06000 526.000
32.08000 502.000
32.10000 462.000
32.12000 403.000
32.14000 422.000
32.16000 383.000
32.18000 357.000
32.20000 362.000
32.22000 327.000
32.24000 324.000
32.26000 272.000
32.28000 289.000
32.30000 281.000
32.32000 275.000
32.34000 301.000
32.36000 293.000
32.38000 251.000
32.40000 261.000
32.42000 279.000
32.44000 291.000
32.46000 249.000
32.48000 243.000
32.50000 273.000
32.52000 216.000
32.54000 231.000
32.56000 249.000
32.58000 244.000
32.60000 233.000
32.62000 255.000
32.64000 230.000
32.66000 209.000
32.68000 208.000
32.70000 256.000
32.72000 244.000
32.74000 229.000
32.76000 235.000
32.78000 233.000
32.80000 242.000
32.82000 237.000
32.84000 232.000
32.86000 214.000
32.88000 217.000
32.90000 234.000
32.92000 214.000
32.94000 229.000
32.96000 246.000
32.98000 252.000
33.00000 217.000
33.02000 240.000
33.04000 208.000
33.06000 220.000
33.08000 205.000
33.10000 242.000
33.12000 230.000
33.14000 220.000
33.16000 216.000
33.18000 236.000
33.20000 213.000
33.22000 207.000
33.24000 238.000
33.26000 204.000
33.28000 217.000
33.30000 234.000
33.32000 193.000
33.34000 207.000
33.36000 222.000
33.38000 198.000
33.40000 227.000
33.42000 208.000
33.44000 230.000
33.46000 214.000
33.48000 221.000
33.50000 214.000
33.52000 214.000
33.54000 191.000
33.56000 209.000
33.58000 224.000
33.60000 175.000
33.62000 207.000
33.64000 208.000
33.66000 169.000
33.68000 187.000
33.70000 207.000
33.72000 204.000
33.74000 207.000
33.76000 184.000
33.78000 205.000
33.80000 204.000
33.82000 194.000
33.84000 185.000
33.86000 206.000
33.88000 210.000
33.90000 217.000
33.92000 222.000
33.94000 216.000
33.96000 198.000
33.98000 174.000
34.00000 186.000
34.02000 208.000
34.04000 197.000
34.06000 197.000
34.08000 200.000
34.10000 196.000
34.12000 199.000
34.14000 187.000
34.16000 191.000
34.18000 217.000
34.20000 220.000
34.22000 183.000
34.24000 203.000
34.26000 201.000
34.28000 202.000
34.30000 188.000
34.32000 220.000
34.34000 190.000
34.36000 196.000
34.38000 216.000
34.40000 208.000
34.42000 176.000
34.44000 203.000
34.46000 213.000
34.48000 204.000
34.50000 211.000
34.52000 225.000
34.54000 211.000
34.56000 195.000
34.58000 212.000
34.60000 208.000
34.62000 229.000
34.64000 214.000
34.66000 220.000
34.68000 249.000
34.70000 256.000
34.72000 250.000
34.74000 296.000
34.76000 282.000
34.78000 358.000
34.80000 377.000
34.82000 387.000
34.84000 424.000
34.86000 472.000
34.88000 486.000
34.90000 508.000
34.92000 539.000
34.94000 545.000
34.96000 485.000
34.98000 503.000
35.00000 514.000
35.02000 420.000
35.04000 415.000
35.06000 379.000
35.08000 329.000
35.10000 259.000
35.12000 299.000
35.14000 271.000
35.16000 263.000
35.18000 236.000
35.20000 237.000
35.22000 227.000
35.24000 232.000
35.26000 214.000
35.28000 188.000
35.30000 190.000
35.32000 195.000
35.34000 202.000
35.36000 188.000
35.38000 216.000
35.40000 208.000
35.42000 181.000
35.44000 203.000
35.46000 216.000
35.48000 187.000
35.50000 190.000
35.52000 180.000
35.54000 185.000
35.56000 184.000
35.58000 187.000
35.60000 187.000
35.62000 183.000
35.64000 183.000
35.66000 194.000
35.68000 157.000
35.70000 187.000
35.72000 196.000
35.74000 221.000
35.76000 194.000
35.78000 197.000
35.80000 186.000
35.82000 171.000
35.84000 183.000
35.86000 169.000
35.88000 189.000
35.90000 187.000
35.92000 169.000
35.94000 190.000
35.96000 156.000
35.98000 203.000
36.00000 181.000
36.02000 201.000
36.04000 178.000
36.06000 172.000
36.08000 180.000
36.10000 199.000
36.12000 185.000
36.14000 168.000
36.16000 175.000
36.18000 181.000
36.20000 183.000
36.22000 195.000
36.24000 175.000
36.26000 208.000
36.28000 197.000
36.30000 154.000
36.32000 162.000
36.34000 177.000
36.36000 214.000
36.38000 201.000
36.40000 166.000
36.42000 183.000
36.44000 164.000
36.46000 165.000
36.48000 180.000
36.50000 181.000
36.52000 183.000
36.54000 187.000
36.56000 188.000
36.58000 153.000
36.60000 162.000
36.62000 176.000
36.64000 183.000
36.66000 157.000
36.68000 150.000
36.70000 185.000
36.72000 185.000
36.74000 167.000
36.76000 164.000
36.78000 179.000
36.80000 169.000
36.82000 169.000
36.84000 164.000
36.86000 162.000
36.88000 172.000
36.90000 180.000
36.92000 191.000
36.94000 155.000
36.96000 162.000
36.98000 161.000
37.00000 190.000
37.02000 188.000
37.04000 172.000
37.06000 174.000
37.08000 159.000
37.10000 179.000
37.12000 161.000
37.14000 174.000
37.16000 174.000
37.18000 165.000
37.20000 169.000
37.22000 176.000
37.24000 173.000
37.26000 184.000
37.28000 177.000
37.30000 155.000
37.32000 172.000
37.34000 171.000
37.36000 167.000
37.38000 171.000
37.40000 176.000
37.42000 164.000
37.44000 176.000
37.46000 165.000
37.48000 197.000
37.50000 191.000
37.52000 177.000
37.54000 167.000
37.56000 199.000
37.58000 192.000
37.60000 187.000
37.62000 161.000
37.64000 179.000
37.66000 182.000
37.68000 181.000
37.70000 198.000
37.72000 154.000
37.74000 168.000
37.76000 168.000
37.78000 188.000
37.80000 181.000
37.82000 162.000
37.84000 185.000
37.86000 176.000
37.88000 170.000
37.90000 171.000
37.92000 186.000
37.94000 143.000
37.96000 156.000
37.98000 181.000
38.00000 181.000
38.02000 175.000
38.04000 165.000
38.06000 182.000
38.08000 171.000
38.10000 142.000
38.12000 201.000
38.14000 183.000
38.16000 177.000
38.18000 169.000
38.20000 156.000
38.22000 172.000
38.24000 192.000
38.26000 158.000
38.28000 167.000
38.30000 190.000
38.32000 174.000
38.34000 185.000
38.36000 179.000
38.38000 189.000
38.40000 182.000
38.42000 202.000
38.44000 188.000
38.46000 179.000
38.48000 199.000
38.50000 216.000
38.52000 204.000
38.54000 254.000
38.56000 260.000
38.58000 225.000
38.60000 227.000
38.62000 254.000
38.64000 257.000
38.66000 261.000
38.68000 256.000
38.70000 219.000
38.72000 236.000
38.74000 253.000
38.76000 216.000
38.78000 234.000
38.80000 207.000
38.82000 198.000
38.84000 224.000
38.86000 197.000
38.88000 174.000
38.90000 194.000
38.92000 195.000
38.94000 191.000
38.96000 191.000
38.98000 182.000
39.00000 201.000
39.02000 197.000
39.04000 157.000
39.06000 188.000
39.08000 195.000
39.10000 191.000
39.12000 190.000
39.14000 195.000
39.16000 187.000
39.18000 166.000
39.20000 180.000
39.22000 168.000
39.24000 179.000
39.26000 163.000
39.28000 171.000
39.30000 185.000
39.32000 182.000
39.34000 195.000
39.36000 212.000
39.38000 184.000
39.40000 224.000
39.42000 201.000
39.44000 200.000
39.46000 211.000
39.48000 208.000
39.50000 183.000
39.52000 198.000
39.54000 211.000
39.56000 211.000
39.58000 224.000
39.60000 207.000
39.62000 209.000
39.64000 182.000
39.66000 216.000
39.68000 196.000
39.70000 207.000
39.72000 224.000
39.74000 208.000
39.76000 199.000
39.78000 188.000
39.80000 207.000
39.82000 198.000
39.84000 194.000
39.86000 199.000
39.88000 195.000
39.90000 182.000
39.92000 205.000
39.94000 184.000
39.96000 183.000
39.98000 200.000
40.00000 218.000
40.02000 225.000
40.04000 188.000
40.06000 199.000
40.08000 237.000
40.10000 216.000
40.12000 225.000
40.14000 231.000
40.16000 222.000
40.18000 223.000
40.20000 231.000
40.22000 255.000
40.24000 275.000
40.26000 321.000
40.28000 347.000
40.30000 375.000
40.32000 379.000
40.34000 469.000
40.36000 524.000
40.38000 643.000
40.40000 740.000
40.42000 839.000
40.44000 954.000
40.46000 1153.000
40.48000 1370.000
40.50000 1490.000
40.52000 1659.000
40.54000 1680.000
40.56000 1684.000
40.58000 1565.000
40.60000 1457.000
40.62000 1397.000
40.64000 1339.000
40.66000 1149.000
40.68000 1072.000
40.70000 927.000
40.72000 806.000
40.74000 785.000
40.76000 684.000
40.78000 618.000
40.80000 554.000
40.82000 524.000
40.84000 522.000
40.86000 480.000
40.88000 420.000
40.90000 394.000
40.92000 383.000
40.94000 336.000
40.96000 334.000
40.98000 334.000
41.00000 296.000
41.02000 305.000
41.04000 283.000
41.06000 251.000
41.08000 262.000
41.10000 266.000
41.12000 261.000
41.14000 285.000
41.16000 274.000
41.18000 286.000
41.20000 270.000
41.22000 269.000
41.24000 277.000
41.26000 284.000
41.28000 293.000
41.30000 287.000
41.32000 307.000
41.34000 272.000
41.36000 247.000
41.38000 255.000
41.40000 280.000
41.42000 266.000
41.44000 242.000
41.46000 204.000
41.48000 243.000
41.50000 216.000
41.52000 200.000
41.54000 203.000
41.56000 192.000
41.58000 237.000
41.60000 202.000
41.62000 213.000
41.64000 199.000
41.66000 210.000
41.68000 216.000
41.70000 199.000
41.72000 201.000
41.74000 209.000
41.76000 201.000
41.78000 187.000
41.80000 198.000
41.82000 200.000
41.84000 208.000
41.86000 177.000
41.88000 172.000
41.90000 211.000
41.92000 185.000
41.94000 205.000
41.96000 163.000
41.98000 185.000
42.00000 199.000
42.02000 181.000
42.04000 202.000
42.06000 185.000
42.08000 172.000
42.10000 192.000
42.12000 174.000
42.14000 216.000
42.16000 219.000
42.18000 167.000
42.20000 188.000
42.22000 178.000
42.24000 176.000
42.26000 204.000
42.28000 209.000
42.30000 202.000
42.32000 203.000
42.34000 203.000
42.36000 187.000
42.38000 172.000
42.40000 195.000
42.42000 190.000
42.44000 195.000
42.46000 210.000
42.48000 186.000
42.50000 203.000
42.52000 220.000
42.54000 161.000
42.56000 234.000
42.58000 216.000
42.60000 214.000
42.62000 198.000
42.64000 207.000
42.66000 219.000
42.68000 200.000
42.70000 201.000
42.72000 266.000
42.74000 252.000
42.76000 245.000
42.78000 259.000
42.80000 273.000
42.82000 327.000
42.84000 355.000
42.86000 376.000
42.88000 388.000
42.90000 422.000
42.92000 489.000
42.94000 569.000
42.96000 633.000
42.98000 796.000
43.00000 913.000
43.02000 1034.000
43.04000 1105.000
43.06000 1360.000
43.08000 1514.000
43.10000 1652.000
43.12000 1552.000
43.14000 1585.000
43.16000 1496.000
43.18000 1375.000
43.20000 1225.000
43.22000 1167.000
43.24000 1098.000
43.26000 898.000
43.28000 774.000
43.30000 613.000
43.32000 541.000
43.34000 478.000
43.36000 465.000
43.38000 361.000
43.40000 371.000
43.42000 319.000
43.44000 290.000
43.46000 239.000
43.48000 277.000
43.50000 252.000
43.52000 254.000
43.54000 232.000
43.56000 228.000
43.58000 224.000
43.60000 204.000
43.62000 223.000
43.64000 196.000
43.66000 205.000
43.68000 208.000
43.70000 187.000
43.72000 190.000
43.74000 183.000
43.76000 196.000
43.78000 154.000
43.80000 175.000
43.82000 200.000
43.84000 186.000
43.86000 188.000
43.88000 164.000
43.90000 198.000
43.92000 159.000
43.94000 153.000
43.96000 187.000
43.98000 179.000
44.00000 168.000
44.02000 174.000
44.04000 187.000
44.06000 173.000
44.08000 162.000
44.10000 169.000
44.12000 158.000
44.14000 154.000
44.16000 167.000
44.18000 158.000
44.20000 172.000
44.22000 193.000
44.24000 170.000
44.26000 182.000
44.28000 147.000
44.30000 172.000
44.32000 161.000
44.34000 150.000
44.36000 170.000
44.38000 148.000
44.40000 150.000
44.42000 163.000
44.44000 161.000
44.46000 146.000
44.48000 172.000
44.50000 149.000
44.52000 166.000
44.54000 165.000
44.56000 162.000
44.58000 143.000
44.60000 147.000
44.62000 159.000
44.64000 158.000
44.66000 148.000
44.68000 140.000
44.70000 144.000
44.72000 146.000
44.74000 150.000
44.76000 153.000
44.78000 158.000
44.80000 141.000
44.82000 141.000
44.84000 150.000
44.86000 147.000
44.88000 144.000
44.90000 143.000
44.92000 133.000
44.94000 157.000
44.96000 127.000
44.98000 147.000
45.00000 143.000
45.02000 157.000
45.04000 157.000
45.06000 145.000
45.08000 144.000
45.10000 150.000
45.12000 153.000
45.14000 161.000
45.16000 135.000
45.18000 140.000
45.20000 160.000
45.22000 139.000
45.24000 135.000
45.26000 159.000
45.28000 157.000
45.30000 131.000
45.32000 157.000
45.34000 160.000
45.36000 179.000
45.38000 161.000
45.40000 149.000
45.42000 144.000
45.44000 158.000
45.46000 176.000
45.48000 162.000
45.50000 157.000
45.52000 198.000
45.54000 182.000
45.56000 186.000
45.58000 220.000
45.60000 187.000
45.62000 178.000
45.64000 173.000
45.66000 179.000
45.68000 144.000
45.70000 169.000
45.72000 150.000
45.74000 152.000
45.76000 155.000
45.78000 161.000
45.80000 154.000
45.82000 130.000
45.84000 139.000
45.86000 125.000
45.88000 143.000
45.90000 147.000
45.92000 142.000
45.94000 153.000
45.96000 147.000
45.98000 142.000
46.00000 142.000
46.02000 129.000
46.04000 116.000
46.06000 126.000
46.08000 147.000
46.10000 115.000
46.12000 141.000
46.14000 144.000
46.16000 164.000
46.18000 127.000
46.20000 131.000
46.22000 120.000
46.24000 135.000
46.26000 139.000
46.28000 138.000
46.30000 136.000
46.32000 134.000
46.34000 143.000
46.36000 140.000
46.38000 131.000
46.40000 138.000
46.42000 119.000
46.44000 115.000
46.46000 142.000
46.48000 130.000
46.50000 131.000
46.52000 126.000
46.54000 117.000
46.56000 119.000
46.58000 137.000
46.60000 142.000
46.62000 142.000
46.64000 127.000
46.66000 138.000
46.68000 137.000
46.70000 130.000
46.72000 147.000
46.74000 121.000
46.76000 128.000
46.78000 122.000
46.80000 138.000
46.82000 119.000
46.84000 119.000
46.86000 120.000
46.88000 123.000
46.90000 131.000
46.92000 146.000
46.94000 122.000
46.96000 112.000
46.98000 131.000
47.00000 119.000
47.02000 135.000
47.04000 130.000
47.06000 128.000
47.08000 128.000
47.10000 119.000
47.12000 116.000
47.14000 125.000
47.16000 133.000
47.18000 139.000
47.20000 110.000
47.22000 120.000
47.24000 112.000
47.26000 128.000
47.28000 113.000
47.30000 122.000
47.32000 122.000
47.34000 129.000
47.36000 132.000
47.38000 127.000
47.40000 155.000
47.42000 114.000
47.44000 123.000
47.46000 138.000
47.48000 126.000
47.50000 127.000
47.52000 120.000
47.54000 127.000
47.56000 141.000
47.58000 118.000
47.60000 149.000
47.62000 124.000
47.64000 105.000
47.66000 133.000
47.68000 109.000
47.70000 123.000
47.72000 136.000
47.74000 134.000
47.76000 122.000
47.78000 129.000
47.80000 136.000
47.82000 125.000
47.84000 138.000
47.86000 146.000
47.88000 146.000
47.90000 158.000
47.92000 155.000
47.94000 195.000
47.96000 144.000
47.98000 144.000
48.00000 128.000
48.02000 138.000
48.04000 129.000
48.06000 144.000
48.08000 130.000
48.10000 142.000
48.12000 133.000
48.14000 119.000
48.16000 129.000
48.18000 121.000
48.20000 118.000
48.22000 133.000
48.24000 122.000
48.26000 107.000
48.28000 111.000
48.30000 126.000
48.32000 137.000
48.34000 121.000
48.36000 138.000
48.38000 113.000
48.40000 125.000
48.42000 125.000
48.44000 103.000
48.46000 136.000
48.48000 127.000
48.50000 103.000
48.52000 121.000
48.54000 111.000
48.56000 129.000
48.58000 135.000
48.60000 132.000
48.62000 106.000
48.64000 112.000
48.66000 113.000
48.68000 99.000
48.70000 120.000
48.72000 126.000
48.74000 135.000
48.76000 128.000
48.78000 97.000
48.80000 121.000
48.82000 119.000
48.84000 126.000
48.86000 114.000
48.88000 99.000
48.90000 130.000
48.92000 120.000
48.94000 141.000
48.96000 127.000
48.98000 115.000
49.00000 116.000
49.02000 110.000
49.04000 129.000
49.06000 101.000
49.08000 124.000
49.10000 120.000
49.12000 104.000
49.14000 111.000
49.16000 116.000
49.18000 108.000
49.20000 134.000
49.22000 122.000
49.24000 106.000
49.26000 124.000
49.28000 124.000
49.30000 124.000
49.32000 132.000
49.34000 135.000
49.36000 131.000
49.38000 134.000
49.40000 106.000
49.42000 133.000
49.44000 127.000
49.46000 116.000
49.48000 113.000
49.50000 123.000
49.52000 125.000
49.54000 104.000
49.56000 140.000
49.58000 124.000
49.60000 129.000
49.62000 109.000
49.64000 114.000
49.66000 140.000
49.68000 130.000
49.70000 127.000
49.72000 104.000
49.74000 115.000
49.76000 133.000
49.78000 151.000
49.80000 134.000
49.82000 151.000
49.84000 135.000
49.86000 135.000
49.88000 155.000
49.90000 172.000
49.92000 139.000
49.94000 168.000
49.96000 190.000
49.98000 195.000
50.00000 225.000
50.02000 204.000
50.04000 254.000
50.06000 264.000
50.08000 300.000
50.10000 341.000
50.12000 376.000
50.14000 430.000
50.16000 488.000
50.18000 554.000
50.20000 530.000
50.22000 540.000
50.24000 519.000
50.26000 468.000
50.28000 442.000
50.30000 462.000
50.32000 454.000
50.34000 369.000
50.36000 348.000
50.38000 341.000
50.40000 293.000
50.42000 256.000
50.44000 234.000
50.46000 209.000
50.48000 184.000
50.50000 187.000
50.52000 163.000
50.54000 146.000
50.56000 159.000
50.58000 155.000
50.60000 165.000
50.62000 121.000
50.64000 158.000
50.66000 132.000
50.68000 159.000
50.70000 134.000
50.72000 126.000
50.74000 102.000
50.76000 158.000
50.78000 143.000
50.80000 117.000
50.82000 150.000
50.84000 127.000
50.86000 121.000
50.88000 100.000
50.90000 125.000
50.92000 116.000
50.94000 112.000
50.96000 130.000
50.98000 142.000
51.00000 130.000
51.02000 122.000
51.04000 120.000
51.06000 130.000
51.08000 128.000
51.10000 110.000
51.12000 125.000
51.14000 131.000
51.16000 111.000
51.18000 117.000
51.20000 113.000
51.22000 125.000
51.24000 113.000
51.26000 130.000
51.28000 118.000
51.30000 107.000
51.32000 124.000
51.34000 113.000
51.36000 116.000
51.38000 130.000
51.40000 111.000
51.42000 114.000
51.44000 111.000
51.46000 96.000
51.48000 109.000
51.50000 126.000
51.52000 112.000
51.54000 93.000
51.56000 99.000
51.58000 106.000
51.60000 127.000
51.62000 104.000
51.64000 126.000
51.66000 110.000
51.68000 118.000
51.70000 103.000
51.72000 119.000
51.74000 128.000
51.76000 113.000
51.78000 127.000
51.80000 108.000
51.82000 115.000
51.84000 99.000
51.86000 135.000
51.88000 100.000
51.90000 142.000
51.92000 123.000
51.94000 123.000
51.96000 107.000
51.98000 134.000
52.00000 136.000
52.02000 129.000
52.04000 123.000
52.06000 117.000
52.08000 148.000
52.10000 149.000
52.12000 164.000
52.14000 145.000
52.16000 152.000
52.18000 163.000
52.20000 188.000
52.22000 204.000
52.24000 241.000
52.26000 230.000
52.28000 253.000
52.30000 266.000
52.32000 298.000
52.34000 327.000
52.36000 359.000
52.38000 419.000
52.40000 446.000
52.42000 397.000
52.44000 357.000
52.46000 398.000
52.48000 355.000
52.50000 320.000
52.52000 321.000
52.54000 338.000
52.56000 311.000
52.58000 277.000
52.60000 240.000
52.62000 222.000
52.64000 183.000
52.66000 174.000
52.68000 181.000
52.70000 153.000
52.72000 147.000
52.74000 133.000
52.76000 135.000
52.78000 148.000
52.80000 135.000
52.82000 137.000
52.84000 139.000
52.86000 110.000
52.88000 114.000
52.90000 134.000
52.92000 115.000
52.94000 105.000
52.96000 138.000
52.98000 114.000
53.00000 100.000
53.02000 108.000
53.04000 119.000
53.06000 112.000
53.08000 115.000
53.10000 124.000
53.12000 105.000
53.14000 117.000
53.16000 107.000
53.18000 104.000
53.20000 104.000
53.22000 103.000
53.24000 124.000
53.26000 104.000
53.28000 130.000
53.30000 117.000
53.32000 98.000
53.34000 104.000
53.36000 107.000
53.38000 93.000
53.40000 120.000
53.42000 108.000
53.44000 111.000
53.46000 100.000
53.48000 111.000
53.50000 119.000
53.52000 100.000
53.54000 85.000
53.56000 96.000
53.58000 113.000
53.60000 111.000
53.62000 80.000
53.64000 106.000
53.66000 115.000
53.68000 105.000
53.70000 96.000
53.72000 108.000
53.74000 111.000
53.76000 103.000
53.78000 118.000
53.80000 111.000
53.82000 97.000
53.84000 121.000
53.86000 109.000
53.88000 101.000
53.90000 105.000
53.92000 106.000
53.94000 69.000
53.96000 97.000
53.98000 107.000
54.00000 95.000
54.02000 93.000
54.04000 96.000
54.06000 106.000
54.08000 116.000
54.10000 101.000
54.12000 114.000
54.14000 99.000
54.16000 82.000
54.18000 85.000
54.20000 111.000
54.22000 98.000
54.24000 109.000
54.26000 104.000
54.28000 123.000
54.30000 105.000
54.32000 113.000
54.34000 125.000
54.36000 117.000
54.38000 108.000
54.40000 125.000
54.42000 121.000
54.44000 154.000
54.46000 155.000
54.48000 148.000
54.50000 169.000
54.52000 165.000
54.54000 179.000
54.56000 174.000
54.58000 196.000
54.60000 151.000
54.62000 158.000
54.64000 184.000
54.66000 182.000
54.68000 157.000
54.70000 149.000
54.72000 124.000
54.74000 134.000
54.76000 120.000
54.78000 117.000
54.80000 126.000
54.82000 111.000
54.84000 86.000
54.86000 108.000
54.88000 112.000
54.90000 115.000
54.92000 110.000
54.94000 85.000
54.96000 95.000
54.98000 86.000
55.00000 96.000
55.02000 93.000
55.04000 112.000
55.06000 102.000
55.08000 105.000
55.10000 103.000
55.12000 94.000
55.14000 63.000
55.16000 112.000
55.18000 88.000
55.20000 92.000
55.22000 93.000
55.24000 110.000
55.26000 103.000
55.28000 104.000
55.30000 95.000
55.32000 104.000
55.34000 92.000
55.36000 83.000
55.38000 107.000
55.40000 96.000
55.42000 95.000
55.44000 87.000
55.46000 78.000
55.48000 84.000
55.50000 95.000
55.52000 111.000
55.54000 98.000
55.56000 84.000
55.58000 91.000
55.60000 81.000
55.62000 84.000
55.64000 103.000
55.66000 100.000
55.68000 88.000
55.70000 74.000
55.72000 92.000
55.74000 115.000
55.76000 100.000
55.78000 76.000
55.80000 93.000
55.82000 90.000
55.84000 83.000
55.86000 110.000
55.88000 91.000
55.90000 98.000
55.92000 106.000
55.94000 93.000
55.96000 98.000
55.98000 101.000
56.00000 95.000
56.02000 80.000
56.04000 100.000
56.06000 84.000
56.08000 102.000
56.10000 107.000
56.12000 86.000
56.14000 100.000
56.16000 90.000
56.18000 101.000
56.20000 95.000
56.22000 82.000
56.24000 82.000
56.26000 104.000
56.28000 93.000
56.30000 81.000
56.32000 106.000
56.34000 119.000
56.36000 97.000
56.38000 104.000
56.40000 95.000
56.42000 113.000
56.44000 101.000
56.46000 129.000
56.48000 109.000
56.50000 114.000
56.52000 103.000
56.54000 124.000
56.56000 114.000
56.58000 100.000
56.60000 100.000
56.62000 99.000
56.64000 117.000
56.66000 78.000
56.68000 98.000
56.70000 110.000
56.72000 92.000
56.74000 93.000
56.76000 85.000
56.78000 95.000
56.80000 85.000
56.82000 107.000
56.84000 90.000
56.86000 88.000
56.88000 86.000
56.90000 69.000
56.92000 80.000
56.94000 97.000
56.96000 98.000
56.98000 99.000
57.00000 87.000
57.02000 94.000
57.04000 100.000
57.06000 94.000
57.08000 106.000
57.10000 82.000
57.12000 86.000
57.14000 93.000
57.16000 96.000
57.18000 93.000
57.20000 105.000
57.22000 82.000
57.24000 97.000
57.26000 92.000
57.28000 77.000
57.30000 85.000
57.32000 96.000
57.34000 74.000
57.36000 102.000
57.38000 89.000
57.40000 91.000
57.42000 106.000
57.44000 105.000
57.46000 94.000
57.48000 98.000
57.50000 96.000
57.52000 87.000
57.54000 101.000
57.56000 92.000
57.58000 81.000
57.60000 101.000
57.62000 94.000
57.64000 82.000
57.66000 96.000
57.68000 95.000
57.70000 96.000
57.72000 103.000
57.74000 115.000
57.76000 98.000
57.78000 118.000
57.80000 113.000
57.82000 108.000
57.84000 97.000
57.86000 103.000
57.88000 89.000
57.90000 86.000
57.92000 95.000
57.94000 82.000
57.96000 100.000
57.98000 89.000
58.00000 101.000
58.02000 97.000
58.04000 99.000
58.06000 90.000
58.08000 109.000
58.10000 88.000
58.12000 98.000
58.14000 93.000
58.16000 82.000
58.18000 96.000
58.20000 91.000
58.22000 100.000
58.24000 90.000
58.26000 98.000
58.28000 110.000
58.30000 104.000
58.32000 110.000
58.34000 123.000
58.36000 111.000
58.38000 114.000
58.40000 109.000
58.42000 120.000
58.44000 124.000
58.46000 117.000
58.48000 150.000
58.50000 147.000
58.52000 138.000
58.54000 144.000
58.56000 179.000
58.58000 164.000
58.60000 191.000
58.62000 189.000
58.64000 199.000
58.66000 210.000
58.68000 232.000
58.70000 206.000
58.72000 187.000
58.74000 182.000
58.76000 194.000
58.78000 181.000
58.80000 189.000
58.82000 161.000
58.84000 146.000
58.86000 188.000
58.88000 140.000
58.90000 141.000
58.92000 135.000
58.94000 109.000
58.96000 107.000
58.98000 135.000
59.00000 130.000
59.02000 109.000
59.04000 123.000
59.06000 126.000
59.08000 83.000
59.10000 107.000
59.12000 117.000
59.14000 83.000
59.16000 106.000
59.18000 89.000
59.20000 121.000
59.22000 96.000
59.24000 96.000
59.26000 95.000
59.28000 85.000
59.30000 92.000
59.32000 77.000
59.34000 96.000
59.36000 91.000
59.38000 104.000
59.40000 98.000
59.42000 114.000
59.44000 102.000
59.46000 94.000
59.48000 115.000
59.50000 93.000
59.52000 69.000
59.54000 109.000
59.56000 104.000
59.58000 93.000
59.60000 91.000
59.62000 109.000
59.64000 113.000
59.66000 90.000
59.68000 99.000
59.70000 103.000
59.72000 122.000
59.74000 84.000
59.76000 105.000
59.78000 109.000
59.80000 108.000
59.82000 94.000
59.84000 102.000
59.86000 104.000
59.88000 98.000
59.90000 95.000
59.92000 89.000
59.94000 93.000
59.96000 96.000
