5.00000 872.000
5.02000 786.000
5.04000 746.000
5.06000 809.000
5.08000 804.000
5.10000 763.000
5.12000 824.000
5.14000 764.000
5.16000 794.000
5.18000 774.000
5.20000 763.000
5.22000 761.000
5.24000 776.000
5.26000 786.000
5.28000 788.000
5.30000 776.000
5.32000 742.000
5.34000 743.000
5.36000 755.000
5.38000 766.000
5.40000 759.000
5.42000 699.000
5.44000 707.000
5.46000 675.000
5.48000 664.000
5.50000 717.000
5.52000 791.000
5.54000 711.000
5.56000 719.000
5.58000 730.000
5.60000 660.000
5.62000 667.000
5.64000 732.000
5.66000 696.000
5.68000 725.000
5.70000 720.000
5.72000 687.000
5.74000 655.000
5.76000 700.000
5.78000 647.000
5.80000 732.000
5.82000 682.000
5.84000 646.000
5.86000 695.000
5.88000 661.000
5.90000 668.000
5.92000 653.000
5.94000 686.000
5.96000 667.000
5.98000 686.000
6.00000 622.000
6.02000 706.000
6.04000 646.000
6.06000 677.000
6.08000 647.000
6.10000 613.000
6.12000 662.000
6.14000 604.000
6.16000 680.000
6.18000 625.000
6.20000 618.000
6.22000 600.000
6.24000 645.000
6.26000 597.000
6.28000 611.000
6.30000 660.000
6.32000 657.000
6.34000 614.000
6.36000 676.000
6.38000 605.000
6.40000 596.000
6.42000 607.000
6.44000 619.000
6.46000 628.000
6.48000 656.000
6.50000 603.000
6.52000 575.000
6.54000 583.000
6.56000 597.000
6.58000 610.000
6.60000 574.000
6.62000 625.000
6.64000 591.000
6.66000 615.000
6.68000 580.000
6.70000 586.000
6.72000 599.000
6.74000 605.000
6.76000 542.000
6.78000 568.000
6.80000 610.000
6.82000 543.000
6.84000 577.000
6.86000 549.000
6.88000 570.000
6.90000 539.000
6.92000 538.000
6.94000 536.000
6.96000 573.000
6.98000 519.000
7.00000 584.000
7.02000 599.000
7.04000 555.000
7.06000 513.000
7.08000 569.000
7.10000 555.000
7.12000 546.000
7.14000 534.000
7.16000 543.000
7.18000 520.000
7.20000 526.000
7.22000 497.000
7.24000 514.000
7.26000 495.000
7.28000 510.000
7.30000 582.000
7.32000 491.000
7.34000 558.000
7.36000 555.000
7.38000 446.000
7.40000 525.000
7.42000 508.000
7.44000 467.000
7.46000 499.000
7.48000 503.000
7.50000 518.000
7.52000 517.000
7.54000 519.000
7.56000 486.000
7.58000 509.000
7.60000 515.000
7.62000 485.000
7.64000 491.000
7.66000 489.000
7.68000 477.000
7.70000 489.000
7.72000 494.000
7.74000 492.000
7.76000 480.000
7.78000 500.000
7.80000 515.000
7.82000 463.000
7.84000 459.000
7.86000 491.000
7.88000 514.000
7.90000 516.000
7.92000 475.000
7.94000 483.000
7.96000 476.000
7.98000 449.000
8.00000 510.000
8.02000 462.000
8.04000 509.000
8.06000 481.000
8.08000 473.000
8.10000 463.000
8.12000 482.000
8.14000 487.000
8.16000 453.000
8.18000 459.000
8.20000 497.000
8.22000 476.000
8.24000 438.000
8.26000 465.000
8.28000 458.000
8.30000 475.000
8.32000 434.000
8.34000 420.000
8.36000 443.000
8.38000 451.000
8.40000 451.000
8.42000 486.000
8.44000 489.000
8.46000 449.000
8.48000 451.000
8.50000 423.000
8.52000 450.000
8.54000 418.000
8.56000 447.000
8.58000 469.000
8.60000 402.000
8.62000 437.000
8.64000 474.000
8.66000 458.000
8.68000 432.000
8.70000 421.000
8.72000 440.000
8.74000 454.000
8.76000 428.000
8.78000 462.000
8.80000 406.000
8.82000 437.000
8.84000 438.000
8.86000 411.000
8.88000 423.000
8.90000 435.000
8.92000 436.000
8.94000 414.000
8.96000 445.000
8.98000 386.000
9.00000 448.000
9.02000 428.000
9.04000 403.000
9.06000 423.000
9.08000 391.000
9.10000 419.000
9.12000 402.000
9.14000 412.000
9.16000 360.000
9.18000 435.000
9.20000 401.000
9.22000 400.000
9.24000 400.000
9.26000 376.000
9.28000 388.000
9.30000 401.000
9.32000 384.000
9.34000 411.000
9.36000 417.000
9.38000 405.000
9.40000 422.000
9.42000 397.000
9.44000 403.000
9.46000 369.000
9.48000 397.000
9.50000 368.000
9.52000 413.000
9.54000 405.000
9.56000 383.000
9.58000 405.000
9.60000 399.000
9.62000 407.000
9.64000 371.000
9.66000 346.000
9.68000 395.000
9.70000 395.000
9.72000 377.000
9.74000 389.000
9.76000 414.000
9.78000 384.000
9.80000 369.000
9.82000 371.000
9.84000 384.000
9.86000 391.000
9.88000 392.000
9.90000 384.000
9.92000 381.000
9.94000 369.000
9.96000 394.000
9.98000 368.000
10.00000 365.000
10.02000 333.000
10.04000 331.000
10.06000 369.000
10.08000 370.000
10.10000 380.000
10.12000 362.000
10.14000 373.000
10.16000 361.000
10.18000 358.000
10.20000 371.000
10.22000 310.000
10.24000 375.000
10.26000 369.000
10.28000 322.000
10.30000 367.000
10.32000 373.000
10.34000 393.000
10.36000 368.000
10.38000 394.000
10.40000 345.000
10.42000 384.000
10.44000 389.000
10.46000 370.000
10.48000 358.000
10.50000 357.000
10.52000 318.000
10.54000 368.000
10.56000 352.000
10.58000 321.000
10.60000 324.000
10.62000 335.000
10.64000 357.000
10.66000 307.000
10.68000 346.000
10.70000 354.000
10.72000 354.000
10.74000 380.000
10.76000 357.000
10.78000 329.000
10.80000 360.000
10.82000 350.000
10.84000 341.000
10.86000 359.000
10.88000 328.000
10.90000 354.000
10.92000 309.000
10.94000 316.000
10.96000 325.000
10.98000 364.000
11.00000 316.000
11.02000 317.000
11.04000 368.000
11.06000 385.000
11.08000 368.000
11.10000 350.000
11.12000 378.000
11.14000 337.000
11.16000 339.000
11.18000 367.000
11.20000 347.000
11.22000 361.000
11.24000 386.000
11.26000 342.000
11.28000 372.000
11.30000 362.000
11.32000 382.000
11.34000 385.000
11.36000 382.000
11.38000 414.000
11.40000 394.000
11.42000 427.000
11.44000 463.000
11.46000 443.000
11.48000 447.000
11.50000 488.000
11.52000 511.000
11.54000 525.000
11.56000 547.000
11.58000 585.000
11.60000 570.000
11.62000 520.000
11.64000 538.000
11.66000 501.000
11.68000 503.000
11.70000 476.000
11.72000 461.000
11.74000 480.000
11.76000 481.000
11.78000 440.000
11.80000 430.000
11.82000 433.000
11.84000 437.000
11.86000 444.000
11.88000 418.000
11.90000 432.000
11.92000 414.000
11.94000 418.000
11.96000 417.000
11.98000 429.000
12.00000 463.000
12.02000 426.000
12.04000 419.000
12.06000 425.000
12.08000 434.000
12.10000 436.000
12.12000 430.000
12.14000 450.000
12.16000 405.000
12.18000 449.000
12.20000 431.000
12.22000 435.000
12.24000 462.000
12.26000 457.000
12.28000 443.000
12.30000 399.000
12.32000 471.000
12.34000 489.000
12.36000 499.000
12.38000 485.000
12.40000 470.000
12.42000 497.000
12.44000 513.000
12.46000 563.000
12.48000 573.000
12.50000 592.000
12.52000 570.000
12.54000 580.000
12.56000 640.000
12.58000 647.000
12.60000 724.000
12.62000 667.000
12.64000 730.000
12.66000 731.000
12.68000 731.000
12.70000 712.000
12.72000 661.000
12.74000 648.000
12.76000 635.000
12.78000 584.000
12.80000 533.000
12.82000 507.000
12.84000 503.000
12.86000 482.000
12.88000 444.000
12.90000 402.000
12.92000 417.000
12.94000 438.000
12.96000 368.000
12.98000 394.000
13.00000 421.000
13.02000 407.000
13.04000 392.000
13.06000 397.000
13.08000 414.000
13.10000 378.000
13.12000 448.000
13.14000 403.000
13.16000 364.000
13.18000 408.000
13.20000 401.000
13.22000 424.000
13.24000 412.000
13.26000 397.000
13.28000 391.000
13.30000 445.000
13.32000 422.000
13.34000 446.000
13.36000 436.000
13.38000 460.000
13.40000 439.000
13.42000 464.000
13.44000 475.000
13.46000 476.000
13.48000 500.000
13.50000 483.000
13.52000 487.000
13.54000 568.000
13.56000 506.000
13.58000 558.000
13.60000 584.000
13.62000 578.000
13.64000 627.000
13.66000 595.000
13.68000 622.000
13.70000 666.000
13.72000 705.000
13.74000 736.000
13.76000 740.000
13.78000 804.000
13.80000 803.000
13.82000 824.000
13.84000 903.000
13.86000 942.000
13.88000 1013.000
13.90000 1125.000
13.92000 1119.000
13.94000 1198.000
13.96000 1358.000
13.98000 1458.000
14.00000 1571.000
14.02000 1679.000
14.04000 1870.000
14.06000 1955.000
14.08000 2018.000
14.10000 1979.000
14.12000 1888.000
14.14000 1631.000
14.16000 1416.000
14.18000 1196.000
14.20000 1070.000
14.22000 849.000
14.24000 736.000
14.26000 645.000
14.28000 586.000
14.30000 521.000
14.32000 472.000
14.34000 409.000
14.36000 422.000
14.38000 377.000
14.40000 379.000
14.42000 384.000
14.44000 354.000
14.46000 339.000
14.48000 351.000
14.50000 349.000
14.52000 342.000
14.54000 324.000
14.56000 296.000
14.58000 294.000
14.60000 308.000
14.62000 327.000
14.64000 283.000
14.66000 271.000
14.68000 296.000
14.70000 284.000
14.72000 297.000
14.74000 298.000
14.76000 272.000
14.78000 306.000
14.80000 246.000
14.82000 296.000
14.84000 249.000
14.86000 283.000
14.88000 256.000
14.90000 267.000
14.92000 254.000
14.94000 256.000
14.96000 275.000
14.98000 268.000
15.00000 254.000
15.02000 267.000
15.04000 282.000
15.06000 232.000
15.08000 256.000
15.10000 244.000
15.12000 244.000
15.14000 238.000
15.16000 248.000
15.18000 273.000
15.20000 261.000
15.22000 202.000
15.24000 240.000
15.26000 253.000
15.28000 247.000
15.30000 243.000
15.32000 266.000
15.34000 261.000
15.36000 225.000
15.38000 227.000
15.40000 247.000
15.42000 259.000
15.44000 238.000
15.46000 241.000
15.48000 257.000
15.50000 216.000
15.52000 257.000
15.54000 243.000
15.56000 237.000
15.58000 206.000
15.60000 238.000
15.62000 229.000
15.64000 236.000
15.66000 249.000
15.68000 236.000
15.70000 244.000
15.72000 220.000
15.74000 256.000
15.76000 215.000
15.78000 228.000
15.80000 253.000
15.82000 248.000
15.84000 217.000
15.86000 243.000
15.88000 197.000
15.90000 243.000
15.92000 225.000
15.94000 251.000
15.96000 216.000
15.98000 221.000
16.00000 239.000
16.02000 245.000
16.04000 222.000
16.06000 199.000
16.08000 225.000
16.10000 217.000
16.12000 213.000
16.14000 209.000
16.16000 214.000
16.18000 214.000
16.20000 182.000
16.22000 211.000
16.24000 219.000
16.26000 210.000
16.28000 222.000
16.30000 234.000
16.32000 244.000
16.34000 203.000
16.36000 220.000
16.38000 231.000
16.40000 208.000
16.42000 218.000
16.44000 202.000
16.46000 235.000
16.48000 218.000
16.50000 214.000
16.52000 218.000
16.54000 206.000
16.56000 197.000
16.58000 190.000
16.60000 221.000
16.62000 182.000
16.64000 212.000
16.66000 213.000
16.68000 230.000
16.70000 215.000
16.72000 190.000
16.74000 226.000
16.76000 211.000
16.78000 211.000
16.80000 220.000
16.82000 206.000
16.84000 228.000
16.86000 219.000
16.88000 227.000
16.90000 197.000
16.92000 199.000
16.94000 221.000
16.96000 196.000
16.98000 212.000
17.00000 226.000
17.02000 241.000
17.04000 213.000
17.06000 225.000
17.08000 228.000
17.10000 236.000
17.12000 228.000
17.14000 226.000
17.16000 201.000
17.18000 208.000
17.20000 225.000
17.22000 197.000
17.24000 229.000
17.26000 215.000
17.28000 215.000
17.30000 229.000
17.32000 205.000
17.34000 201.000
17.36000 200.000
17.38000 201.000
17.40000 194.000
17.42000 223.000
17.44000 187.000
17.46000 214.000
17.48000 195.000
17.50000 214.000
17.52000 213.000
17.54000 221.000
17.56000 227.000
17.58000 237.000
17.60000 199.000
17.62000 213.000
17.64000 179.000
17.66000 211.000
17.68000 229.000
17.70000 199.000
17.72000 208.000
17.74000 221.000
17.76000 197.000
17.78000 211.000
17.80000 206.000
17.82000 229.000
17.84000 191.000
17.86000 222.000
17.88000 184.000
17.90000 191.000
17.92000 197.000
17.94000 201.000
17.96000 214.000
17.98000 212.000
18.00000 192.000
18.02000 204.000
18.04000 221.000
18.06000 192.000
18.08000 219.000
18.10000 199.000
18.12000 233.000
18.14000 222.000
18.16000 200.000
18.18000 196.000
18.20000 195.000
18.22000 219.000
18.24000 219.000
18.26000 193.000
18.28000 190.000
18.30000 227.000
18.32000 215.000
18.34000 198.000
18.36000 178.000
18.38000 192.000
18.40000 196.000
18.42000 214.000
18.44000 202.000
18.46000 220.000
18.48000 203.000
18.50000 210.000
18.52000 197.000
18.54000 209.000
18.56000 199.000
18.58000 222.000
18.60000 195.000
18.62000 193.000
18.64000 191.000
18.66000 194.000
18.68000 210.000
18.70000 196.000
18.72000 224.000
18.74000 214.000
18.76000 209.000
18.78000 213.000
18.80000 218.000
18.82000 233.000
18.84000 193.000
18.86000 218.000
18.88000 191.000
18.90000 203.000
18.92000 209.000
18.94000 205.000
18.96000 191.000
18.98000 184.000
19.00000 226.000
19.02000 204.000
19.04000 231.000
19.06000 240.000
19.08000 223.000
19.10000 198.000
19.12000 202.000
19.14000 208.000
19.16000 213.000
19.18000 216.000
19.20000 196.000
19.22000 223.000
19.24000 235.000
19.26000 226.000
19.28000 214.000
19.30000 202.000
19.32000 206.000
19.34000 214.000
19.36000 217.000
19.38000 223.000
19.40000 240.000
19.42000 226.000
19.44000 240.000
19.46000 231.000
19.48000 231.000
19.50000 258.000
19.52000 256.000
19.54000 239.000
19.56000 259.000
19.58000 247.000
19.60000 264.000
19.62000 275.000
19.64000 285.000
19.66000 282.000
19.68000 308.000
19.70000 325.000
19.72000 292.000
19.74000 357.000
19.76000 411.000
19.78000 423.000
19.80000 472.000
19.82000 545.000
19.84000 543.000
19.86000 640.000
19.88000 653.000
19.90000 728.000
19.92000 790.000
19.94000 924.000
19.96000 952.000
19.98000 956.000
20.00000 873.000
20.02000 881.000
20.04000 766.000
20.06000 715.000
20.08000 618.000
20.10000 513.000
20.12000 465.000
20.14000 391.000
20.16000 340.000
20.18000 337.000
20.20000 257.000
20.22000 269.000
20.24000 270.000
20.26000 220.000
20.28000 250.000
20.30000 221.000
20.32000 237.000
20.34000 188.000
20.36000 221.000
20.38000 247.000
20.40000 192.000
20.42000 232.000
20.44000 195.000
20.46000 212.000
20.48000 195.000
20.50000 210.000
20.52000 210.000
20.54000 199.000
20.56000 227.000
20.58000 244.000
20.60000 233.000
20.62000 217.000
20.64000 197.000
20.66000 218.000
20.68000 214.000
20.70000 206.000
20.72000 211.000
20.74000 180.000
20.76000 188.000
20.78000 234.000
20.80000 196.000
20.82000 202.000
20.84000 198.000
20.86000 219.000
20.88000 178.000
20.90000 238.000
20.92000 217.000
20.94000 193.000
20.96000 209.000
20.98000 203.000
21.00000 210.000
21.02000 198.000
21.04000 186.000
21.06000 203.000
21.08000 203.000
21.10000 198.000
21.12000 184.000
21.14000 211.000
21.16000 202.000
21.18000 211.000
21.20000 214.000
21.22000 204.000
21.24000 212.000
21.26000 207.000
21.28000 199.000
21.30000 215.000
21.32000 234.000
21.34000 200.000
21.36000 180.000
21.38000 198.000
21.40000 204.000
21.42000 212.000
21.44000 209.000
21.46000 219.000
21.48000 197.000
21.50000 226.000
21.52000 231.000
21.54000 193.000
21.56000 190.000
21.58000 209.000
21.60000 191.000
21.62000 217.000
21.64000 210.000
21.66000 214.000
21.68000 217.000
21.70000 179.000
21.72000 208.000
21.74000 218.000
21.76000 210.000
21.78000 195.000
21.80000 208.000
21.82000 205.000
21.84000 227.000
21.86000 207.000
21.88000 202.000
21.90000 224.000
21.92000 206.000
21.94000 226.000
21.96000 207.000
21.98000 179.000
22.00000 205.000
22.02000 198.000
22.04000 209.000
22.06000 216.000
22.08000 224.000
22.10000 201.000
22.12000 221.000
22.14000 214.000
22.16000 203.000
22.18000 218.000
22.20000 226.000
22.22000 183.000
22.24000 211.000
22.26000 219.000
22.28000 193.000
22.30000 220.000
22.32000 224.000
22.34000 217.000
22.36000 197.000
22.38000 211.000
22.40000 213.000
22.42000 245.000
22.44000 238.000
22.46000 177.000
22.48000 203.000
22.50000 227.000
22.52000 210.000
22.54000 236.000
22.56000 219.000
22.58000 221.000
22.60000 237.000
22.62000 224.000
22.64000 249.000
22.66000 231.000
22.68000 212.000
22.70000 241.000
22.72000 269.000
22.74000 236.000
22.76000 247.000
22.78000 246.000
22.80000 240.000
22.82000 256.000
22.84000 237.000
22.86000 250.000
22.88000 259.000
22.90000 270.000
22.92000 275.000
22.94000 244.000
22.96000 264.000
22.98000 245.000
23.00000 246.000
23.02000 261.000
23.04000 261.000
23.06000 244.000
23.08000 280.000
23.10000 251.000
23.12000 261.000
23.14000 228.000
23.16000 250.000
23.18000 231.000
23.20000 259.000
23.22000 239.000
23.24000 244.000
23.26000 254.000
23.28000 225.000
23.30000 230.000
23.32000 245.000
23.34000 222.000
23.36000 228.000
23.38000 271.000
23.40000 249.000
23.42000 208.000
23.44000 229.000
23.46000 245.000
23.48000 247.000
23.50000 229.000
23.52000 259.000
23.54000 232.000
23.56000 220.000
23.58000 270.000
23.60000 220.000
23.62000 236.000
23.64000 225.000
23.66000 264.000
23.68000 233.000
23.70000 214.000
23.72000 263.000
23.74000 233.000
23.76000 226.000
23.78000 224.000
23.80000 251.000
23.82000 230.000
23.84000 260.000
23.86000 228.000
23.88000 247.000
23.90000 226.000
23.92000 227.000
23.94000 264.000
23.96000 253.000
23.98000 261.000
24.00000 254.000
24.02000 247.000
24.04000 243.000
24.06000 285.000
24.08000 264.000
24.10000 279.000
24.12000 313.000
24.14000 286.000
24.16000 305.000
24.18000 308.000
24.20000 313.000
24.22000 369.000
24.24000 363.000
24.26000 371.000
24.28000 396.000
24.30000 437.000
24.32000 492.000
24.34000 507.000
24.36000 595.000
24.38000 591.000
24.40000 675.000
24.42000 732.000
24.44000 773.000
24.46000 914.000
24.48000 1027.000
24.50000 1089.000
24.52000 1009.000
24.54000 1097.000
24.56000 1029.000
24.58000 903.000
24.60000 821.000
24.62000 757.000
24.64000 655.000
24.66000 610.000
24.68000 495.000
24.70000 458.000
24.72000 406.000
24.74000 396.000
24.76000 356.000
24.78000 334.000
24.80000 324.000
24.82000 348.000
24.84000 317.000
24.86000 292.000
24.88000 305.000
24.90000 307.000
24.92000 308.000
24.94000 285.000
24.96000 301.000
24.98000 271.000
25.00000 245.000
25.02000 264.000
25.04000 290.000
25.06000 272.000
25.08000 258.000
25.10000 257.000
25.12000 250.000
25.14000 268.000
25.16000 247.000
25.18000 252.000
25.20000 247.000
25.22000 280.000
25.24000 240.000
25.26000 244.000
25.28000 256.000
25.30000 269.000
25.32000 256.000
25.34000 262.000
25.36000 270.000
25.38000 286.000
25.40000 271.000
25.42000 263.000
25.44000 288.000
25.46000 285.000
25.48000 301.000
25.50000 293.000
25.52000 281.000
25.54000 271.000
25.56000 275.000
25.58000 252.000
25.60000 249.000
25.62000 296.000
25.64000 267.000
25.66000 287.000
25.68000 284.000
25.70000 258.000
25.72000 301.000
25.74000 298.000
25.76000 279.000
25.78000 282.000
25.80000 276.000
25.82000 293.000
25.84000 275.000
25.86000 298.000
25.88000 297.000
25.90000 266.000
25.92000 297.000
25.94000 295.000
25.96000 290.000
25.98000 280.000
26.00000 276.000
26.02000 299.000
26.04000 286.000
26.06000 294.000
26.08000 274.000
26.10000 282.000
26.12000 317.000
26.14000 283.000
26.16000 279.000
26.18000 259.000
26.20000 265.000
26.22000 271.000
26.24000 270.000
26.26000 263.000
26.28000 273.000
26.30000 261.000
26.32000 276.000
26.34000 253.000
26.36000 287.000
26.38000 262.000
26.40000 259.000
26.42000 265.000
26.44000 254.000
26.46000 290.000
26.48000 277.000
26.50000 248.000
26.52000 302.000
26.54000 245.000
26.56000 216.000
26.58000 289.000
26.60000 233.000
26.62000 225.000
26.64000 249.000
26.66000 261.000
26.68000 260.000
26.70000 256.000
26.72000 262.000
26.74000 260.000
26.76000 278.000
26.78000 254.000
26.80000 237.000
26.82000 221.000
26.84000 273.000
26.86000 243.000
26.88000 265.000
26.90000 264.000
26.92000 264.000
26.94000 241.000
26.96000 280.000
26.98000 266.000
27.00000 292.000
27.02000 288.000
27.04000 249.000
27.06000 281.000
27.08000 281.000
27.10000 281.000
27.12000 275.000
27.14000 282.000
27.16000 317.000
27.18000 256.000
27.20000 284.000
27.22000 317.000
27.24000 258.000
27.26000 263.000
27.28000 298.000
27.30000 267.000
27.32000 282.000
27.34000 290.000
27.36000 278.000
27.38000 280.000
27.40000 265.000
27.42000 295.000
27.44000 285.000
27.46000 308.000
27.48000 298.000
27.50000 297.000
27.52000 315.000
27.54000 282.000
27.56000 325.000
27.58000 266.000
27.60000 305.000
27.62000 300.000
27.64000 298.000
27.66000 302.000
27.68000 295.000
27.70000 331.000
27.72000 338.000
27.74000 311.000
27.76000 334.000
27.78000 325.000
27.80000 339.000
27.82000 360.000
27.84000 385.000
27.86000 350.000
27.88000 357.000
27.90000 392.000
27.92000 386.000
27.94000 404.000
27.96000 421.000
27.98000 464.000
28.00000 508.000
28.02000 470.000
28.04000 477.000
28.06000 532.000
28.08000 559.000
28.10000 581.000
28.12000 701.000
28.14000 701.000
28.16000 731.000
28.18000 769.000
28.20000 848.000
28.22000 941.000
28.24000 1014.000
28.26000 1139.000
28.28000 1270.000
28.30000 1465.000
28.32000 1534.000
28.34000 1666.000
28.36000 1851.000
28.38000 1874.000
28.40000 1911.000
28.42000 1789.000
28.44000 1598.000
28.46000 1496.000
28.48000 1406.000
28.50000 1254.000
28.52000 1059.000
28.54000 892.000
28.56000 812.000
28.58000 703.000
28.60000 646.000
28.62000 550.000
28.64000 493.000
28.66000 453.000
28.68000 400.000
28.70000 413.000
28.72000 407.000
28.74000 370.000
28.76000 380.000
28.78000 345.000
28.80000 348.000
28.82000 316.000
28.84000 353.000
28.86000 304.000
28.88000 318.000
28.90000 287.000
28.92000 304.000
28.94000 308.000
28.96000 257.000
28.98000 279.000
29.00000 279.000
29.02000 297.000
29.04000 265.000
29.06000 281.000
29.08000 278.000
29.10000 283.000
29.12000 252.000
29.14000 266.000
29.16000 270.000
29.18000 297.000
29.20000 276.000
29.22000 295.000
29.24000 250.000
29.26000 283.000
29.28000 277.000
29.30000 250.000
29.32000 255.000
29.34000 271.000
29.36000 293.000
29.38000 259.000
29.40000 267.000
29.42000 264.000
29.44000 232.000
29.46000 241.000
29.48000 215.000
29.50000 252.000
29.52000 235.000
29.54000 245.000
29.56000 288.000
29.58000 270.000
29.60000 238.000
29.62000 225.000
29.64000 240.000
29.66000 258.000
29.68000 244.000
29.70000 235.000
29.72000 257.000
29.74000 238.000
29.76000 236.000
29.78000 252.000
29.80000 250.000
29.82000 230.000
29.84000 214.000
29.86000 230.000
29.88000 216.000
29.90000 209.000
29.92000 227.000
29.94000 232.000
29.96000 228.000
29.98000 245.000
30.00000 235.000
30.02000 195.000
30.04000 239.000
30.06000 226.000
30.08000 241.000
30.10000 254.000
30.12000 235.000
30.14000 249.000
30.16000 245.000
30.18000 233.000
30.20000 229.000
30.22000 255.000
30.24000 229.000
30.26000 234.000
30.28000 220.000
30.30000 243.000
30.32000 238.000
30.34000 278.000
30.36000 247.000
30.38000 281.000
30.40000 233.000
30.42000 273.000
30.44000 245.000
30.46000 278.000
30.48000 279.000
30.50000 286.000
30.52000 227.000
30.54000 275.000
30.56000 235.000
30.58000 251.000
30.60000 249.000
30.62000 231.000
30.64000 259.000
30.66000 249.000
30.68000 254.000
30.70000 229.000
30.72000 260.000
30.74000 269.000
30.76000 276.000
30.78000 253.000
30.80000 244.000
30.82000 270.000
30.84000 263.000
30.86000 284.000
30.88000 295.000
30.90000 294.000
30.92000 278.000
30.94000 305.000
30.96000 276.000
30.98000 301.000
31.00000 294.000
31.02000 328.000
31.04000 299.000
31.06000 322.000
31.08000 300.000
31.10000 311.000
31.12000 302.000
31.14000 294.000
31.16000 301.000
31.18000 326.000
31.20000 334.000
31.22000 302.000
31.24000 364.000
31.26000 352.000
31.28000 367.000
31.30000 363.000
31.32000 384.000
31.34000 391.000
31.36000 381.000
31.38000 400.000
31.40000 429.000
31.42000 438.000
31.44000 491.000
31.46000 569.000
31.48000 518.000
31.50000 582.000
31.52000 684.000
31.54000 710.000
31.56000 745.000
31.58000 901.000
31.60000 998.000
31.62000 1124.000
31.64000 1232.000
31.66000 1410.000
31.68000 1628.000
31.70000 1909.000
31.72000 2083.000
31.74000 2305.000
31.76000 2557.000
31.78000 2829.000
31.80000 3008.000
31.82000 2993.000
31.84000 3019.000
31.86000 2748.000
31.88000 2525.000
31.90000 2324.000
31.92000 2077.000
31.94000 1732.000
31.96000 1462.000
31.98000 1215.000
32.00000 1018.000
32.02000 926.000
32.04000 724.000
32.06000 662.000
32.08000 572.000
32.10000 570.000
32.12000 498.000
32.14000 478.000
32.16000 451.000
32.18000 389.000
32.20000 422.000
32.22000 342.000
32.24000 351.000
32.26000 319.000
32.28000 299.000
32.30000 325.000
32.32000 280.000
32.34000 280.000
32.36000 273.000
32.38000 265.000
32.40000 271.000
32.42000 244.000
32.44000 254.000
32.46000 239.000
32.48000 225.000
32.50000 220.000
32.52000 262.000
32.54000 227.000
32.56000 227.000
32.58000 225.000
32.60000 239.000
32.62000 221.000
32.64000 224.000
32.66000 206.000
32.68000 214.000
32.70000 207.000
32.72000 247.000
32.74000 208.000
32.76000 215.000
32.78000 198.000
32.80000 211.000
32.82000 229.000
32.84000 188.000
32.86000 200.000
32.88000 194.000
32.90000 205.000
32.92000 201.000
32.94000 210.000
32.96000 224.000
32.98000 181.000
33.00000 205.000
33.02000 226.000
33.04000 183.000
33.06000 186.000
33.08000 203.000
33.10000 212.000
33.12000 188.000
33.14000 192.000
33.16000 195.000
33.18000 213.000
33.20000 236.000
33.22000 205.000
33.24000 185.000
33.26000 173.000
33.28000 188.000
33.30000 184.000
33.32000 160.000
33.34000 164.000
33.36000 189.000
33.38000 183.000
33.40000 187.000
33.42000 184.000
33.44000 184.000
33.46000 205.000
33.48000 166.000
33.50000 205.000
33.52000 185.000
33.54000 167.000
33.56000 189.000
33.58000 188.000
33.60000 208.000
33.62000 194.000
33.64000 193.000
33.66000 201.000
33.68000 190.000
33.70000 179.000
33.72000 186.000
33.74000 174.000
33.76000 172.000
33.78000 191.000
33.80000 179.000
33.82000 202.000
33.84000 183.000
33.86000 184.000
33.88000 205.000
33.90000 170.000
33.92000 178.000
33.94000 199.000
33.96000 194.000
33.98000 171.000
34.00000 200.000
34.02000 191.000
34.04000 175.000
34.06000 164.000
34.08000 207.000
34.10000 197.000
34.12000 191.000
34.14000 194.000
34.16000 212.000
34.18000 181.000
34.20000 189.000
34.22000 194.000
34.24000 207.000
34.26000 191.000
34.28000 160.000
34.30000 197.000
34.32000 178.000
34.34000 200.000
34.36000 205.000
34.38000 185.000
34.40000 192.000
34.42000 175.000
34.44000 186.000
34.46000 174.000
34.48000 206.000
34.50000 193.000
34.52000 202.000
34.54000 196.000
34.56000 197.000
34.58000 205.000
34.60000 201.000
34.62000 199.000
34.64000 217.000
34.66000 221.000
34.68000 219.000
34.70000 232.000
34.72000 241.000
34.74000 250.000
34.76000 262.000
34.78000 272.000
34.80000 308.000
34.82000 326.000
34.84000 342.000
34.86000 382.000
34.88000 429.000
34.90000 450.000
34.92000 530.000
34.94000 524.000
34.96000 505.000
34.98000 547.000
35.00000 495.000
35.02000 474.000
35.04000 457.000
35.06000 393.000
35.08000 381.000
35.10000 388.000
35.12000 324.000
35.14000 314.000
35.16000 297.000
35.18000 279.000
35.20000 268.000
35.22000 252.000
35.24000 204.000
35.26000 231.000
35.28000 222.000
35.30000 225.000
35.32000 161.000
35.34000 191.000
35.36000 196.000
35.38000 205.000
35.40000 196.000
35.42000 175.000
35.44000 193.000
35.46000 182.000
35.48000 185.000
35.50000 184.000
35.52000 164.000
35.54000 203.000
35.56000 170.000
35.58000 173.000
35.60000 185.000
35.62000 153.000
35.64000 175.000
35.66000 170.000
35.68000 180.000
35.70000 191.000
35.72000 179.000
35.74000 152.000
35.76000 179.000
35.78000 130.000
35.80000 181.000
35.82000 177.000
35.84000 177.000
35.86000 167.000
35.88000 150.000
35.90000 196.000
35.92000 177.000
35.94000 186.000
35.96000 161.000
35.98000 156.000
36.00000 168.000
36.02000 151.000
36.04000 182.000
36.06000 168.000
36.08000 162.000
36.10000 175.000
36.12000 162.000
36.14000 139.000
36.16000 152.000
36.18000 157.000
36.20000 163.000
36.22000 161.000
36.24000 144.000
36.26000 154.000
36.28000 180.000
36.30000 167.000
36.32000 174.000
36.34000 178.000
36.36000 167.000
36.38000 169.000
36.40000 176.000
36.42000 162.000
36.44000 149.000
36.46000 156.000
36.48000 183.000
36.50000 173.000
36.52000 166.000
36.54000 170.000
36.56000 168.000
36.58000 165.000
36.60000 153.000
36.62000 159.000
36.64000 156.000
36.66000 150.000
36.68000 139.000
36.70000 175.000
36.72000 164.000
36.74000 159.000
36.76000 159.000
36.78000 154.000
36.80000 169.000
36.82000 159.000
36.84000 164.000
36.86000 159.000
36.88000 156.000
36.90000 154.000
36.92000 179.000
36.94000 162.000
36.96000 165.000
36.98000 150.000
37.00000 154.000
37.02000 181.000
37.04000 146.000
37.06000 190.000
37.08000 155.000
37.10000 178.000
37.12000 164.000
37.14000 182.000
37.16000 157.000
37.18000 174.000
37.20000 134.000
37.22000 157.000
37.24000 136.000
37.26000 149.000
37.28000 157.000
37.30000 161.000
37.32000 173.000
37.34000 168.000
37.36000 165.000
37.38000 176.000
37.40000 164.000
37.42000 165.000
37.44000 150.000
37.46000 163.000
37.48000 176.000
37.50000 185.000
37.52000 158.000
37.54000 163.000
37.56000 160.000
37.58000 161.000
37.60000 156.000
37.62000 161.000
37.64000 175.000
37.66000 181.000
37.68000 158.000
37.70000 139.000
37.72000 154.000
37.74000 150.000
37.76000 147.000
37.78000 179.000
37.80000 171.000
37.82000 156.000
37.84000 164.000
37.86000 186.000
37.88000 151.000
37.90000 164.000
37.92000 177.000
37.94000 173.000
37.96000 157.000
37.98000 159.000
38.00000 179.000
38.02000 167.000
38.04000 166.000
38.06000 168.000
38.08000 150.000
38.10000 155.000
38.12000 142.000
38.14000 158.000
38.16000 149.000
38.18000 186.000
38.20000 137.000
38.22000 150.000
38.24000 175.000
38.26000 173.000
38.28000 160.000
38.30000 169.000
38.32000 167.000
38.34000 164.000
38.36000 143.000
38.38000 184.000
38.40000 170.000
38.42000 184.000
38.44000 158.000
38.46000 144.000
38.48000 190.000
38.50000 168.000
38.52000 191.000
38.54000 175.000
38.56000 191.000
38.58000 198.000
38.60000 203.000
38.62000 223.000
38.64000 238.000
38.66000 226.000
38.68000 212.000
38.70000 224.000
38.72000 257.000
38.74000 206.000
38.76000 206.000
38.78000 236.000
38.80000 235.000
38.82000 166.000
38.84000 201.000
38.86000 179.000
38.88000 190.000
38.90000 179.000
38.92000 173.000
38.94000 191.000
38.96000 186.000
38.98000 168.000
39.00000 202.000
39.02000 204.000
39.04000 166.000
39.06000 203.000
39.08000 175.000
39.10000 166.000
39.12000 199.000
39.14000 182.000
39.16000 160.000
39.18000 167.000
39.20000 149.000
39.22000 188.000
39.24000 186.000
39.26000 182.000
39.28000 182.000
39.30000 207.000
39.32000 177.000
39.34000 195.000
39.36000 185.000
39.38000 194.000
39.40000 200.000
39.42000 241.000
39.44000 244.000
39.46000 241.000
39.48000 270.000
39.50000 264.000
39.52000 273.000
39.54000 298.000
39.56000 265.000
39.58000 296.000
39.60000 260.000
39.62000 273.000
39.64000 284.000
39.66000 259.000
39.68000 230.000
39.70000 253.000
39.72000 231.000
39.74000 214.000
39.76000 221.000
39.78000 205.000
39.80000 189.000
39.82000 184.000
39.84000 193.000
39.86000 197.000
39.88000 193.000
39.90000 198.000
39.92000 205.000
39.94000 196.000
39.96000 201.000
39.98000 208.000
40.00000 201.000
40.02000 179.000
40.04000 216.000
40.06000 232.000
40.08000 188.000
40.10000 193.000
40.12000 210.000
40.14000 230.000
40.16000 226.000
40.18000 227.000
40.20000 269.000
40.22000 225.000
40.24000 260.000
40.26000 298.000
40.28000 325.000
40.30000 344.000
40.32000 379.000
40.34000 404.000
40.36000 491.000
40.38000 547.000
40.40000 572.000
40.42000 703.000
40.44000 777.000
40.46000 936.000
40.48000 1088.000
40.50000 1362.000
40.52000 1427.000
40.54000 1619.000
40.56000 1764.000
40.58000 1791.000
40.60000 1756.000
40.62000 1665.000
40.64000 1655.000
40.66000 1537.000
40.68000 1444.000
40.70000 1271.000
40.72000 1184.000
40.74000 1051.000
40.76000 976.000
40.78000 876.000
40.80000 753.000
40.82000 666.000
40.84000 580.000
40.86000 559.000
40.88000 514.000
40.90000 400.000
40.92000 379.000
40.94000 383.000
40.96000 308.000
40.98000 311.000
41.00000 269.000
41.02000 264.000
41.04000 257.000
41.06000 268.000
41.08000 217.000
41.10000 265.000
41.12000 204.000
41.14000 254.000
41.16000 246.000
41.18000 260.000
41.20000 269.000
41.22000 257.000
41.24000 253.000
41.26000 256.000
41.28000 232.000
41.30000 240.000
41.32000 226.000
41.34000 230.000
41.36000 237.000
41.38000 233.000
41.40000 235.000
41.42000 215.000
41.44000 213.000
41.46000 206.000
41.48000 212.000
41.50000 164.000
41.52000 235.000
41.54000 203.000
41.56000 208.000
41.58000 223.000
41.60000 210.000
41.62000 206.000
41.64000 215.000
41.66000 218.000
41.68000 214.000
41.70000 223.000
41.72000 181.000
41.74000 217.000
41.76000 212.000
41.78000 185.000
41.80000 186.000
41.82000 198.000
41.84000 189.000
41.86000 187.000
41.88000 154.000
41.90000 183.000
41.92000 173.000
41.94000 179.000
41.96000 171.000
41.98000 198.000
42.00000 170.000
42.02000 182.000
42.04000 194.000
42.06000 188.000
42.08000 172.000
42.10000 174.000
42.12000 156.000
42.14000 174.000
42.16000 180.000
42.18000 183.000
42.20000 181.000
42.22000 180.000
42.24000 181.000
42.26000 151.000
42.28000 182.000
42.30000 173.000
42.32000 183.000
42.34000 163.000
42.36000 190.000
42.38000 176.000
42.40000 186.000
42.42000 182.000
42.44000 185.000
42.46000 155.000
42.48000 179.000
42.50000 197.000
42.52000 170.000
42.54000 182.000
42.56000 210.000
42.58000 214.000
42.60000 196.000
42.62000 183.000
42.64000 192.000
42.66000 210.000
42.68000 225.000
42.70000 223.000
42.72000 210.000
42.74000 223.000
42.76000 206.000
42.78000 236.000
42.80000 264.000
42.82000 298.000
42.84000 288.000
42.86000 325.000
42.88000 333.000
42.90000 351.000
42.92000 414.000
42.94000 459.000
42.96000 547.000
42.98000 589.000
43.00000 750.000
43.02000 793.000
43.04000 883.000
43.06000 1042.000
43.08000 1233.000
43.10000 1408.000
43.12000 1474.000
43.14000 1541.000
43.16000 1577.000
43.18000 1503.000
43.20000 1541.000
43.22000 1456.000
43.24000 1354.000
43.26000 1210.000
43.28000 1118.000
43.30000 1014.000
43.32000 863.000
43.34000 731.000
43.36000 638.000
43.38000 584.000
43.40000 507.000
43.42000 474.000
43.44000 403.000
43.46000 349.000
43.48000 332.000
43.50000 294.000
43.52000 263.000
43.54000 293.000
43.56000 264.000
43.58000 254.000
43.60000 218.000
43.62000 204.000
43.64000 184.000
43.66000 181.000
43.68000 204.000
43.70000 206.000
43.72000 187.000
43.74000 183.000
43.76000 185.000
43.78000 166.000
43.80000 178.000
43.82000 149.000
43.84000 174.000
43.86000 157.000
43.88000 171.000
43.90000 164.000
43.92000 150.000
43.94000 181.000
43.96000 135.000
43.98000 168.000
44.00000 155.000
44.02000 155.000
44.04000 160.000
44.06000 143.000
44.08000 157.000
44.10000 141.000
44.12000 151.000
44.14000 149.000
44.16000 138.000
44.18000 160.000
44.20000 142.000
44.22000 142.000
44.24000 141.000
44.26000 140.000
44.28000 148.000
44.30000 133.000
44.32000 147.000
44.34000 141.000
44.36000 138.000
44.38000 151.000
44.40000 162.000
44.42000 137.000
44.44000 136.000
44.46000 133.000
44.48000 132.000
44.50000 128.000
44.52000 132.000
44.54000 134.000
44.56000 128.000
44.58000 145.000
44.60000 138.000
44.62000 139.000
44.64000 140.000
44.66000 151.000
44.68000 134.000
44.70000 128.000
44.72000 147.000
44.74000 127.000
44.76000 120.000
44.78000 128.000
44.80000 133.000
44.82000 154.000
44.84000 155.000
44.86000 144.000
44.88000 133.000
44.90000 135.000
44.92000 133.000
44.94000 105.000
44.96000 136.000
44.98000 132.000
45.00000 121.000
45.02000 121.000
45.04000 117.000
45.06000 158.000
45.08000 113.000
45.10000 160.000
45.12000 143.000
45.14000 114.000
45.16000 122.000
45.18000 142.000
45.20000 123.000
45.22000 111.000
45.24000 122.000
45.26000 131.000
45.28000 139.000
45.30000 131.000
45.32000 111.000
45.34000 118.000
45.36000 153.000
45.38000 152.000
45.40000 133.000
45.42000 133.000
45.44000 138.000
45.46000 144.000
45.48000 151.000
45.50000 163.000
45.52000 165.000
45.54000 143.000
45.56000 154.000
45.58000 167.000
45.60000 179.000
45.62000 166.000
45.64000 183.000
45.66000 175.000
45.68000 160.000
45.70000 152.000
45.72000 153.000
45.74000 163.000
45.76000 133.000
45.78000 158.000
45.80000 132.000
45.82000 131.000
45.84000 127.000
45.86000 110.000
45.88000 145.000
45.90000 121.000
45.92000 113.000
45.94000 122.000
45.96000 129.000
45.98000 123.000
46.00000 125.000
46.02000 111.000
46.04000 128.000
46.06000 134.000
46.08000 105.000
46.10000 118.000
46.12000 132.000
46.14000 121.000
46.16000 137.000
46.18000 141.000
46.20000 134.000
46.22000 124.000
46.24000 126.000
46.26000 120.000
46.28000 131.000
46.30000 134.000
46.32000 123.000
46.34000 139.000
46.36000 123.000
46.38000 136.000
46.40000 105.000
46.42000 126.000
46.44000 130.000
46.46000 130.000
46.48000 113.000
46.50000 115.000
46.52000 118.000
46.54000 117.000
46.56000 138.000
46.58000 148.000
46.60000 117.000
46.62000 145.000
46.64000 105.000
46.66000 114.000
46.68000 121.000
46.70000 130.000
46.72000 108.000
46.74000 111.000
46.76000 112.000
46.78000 107.000
46.80000 115.000
46.82000 119.000
46.84000 115.000
46.86000 115.000
46.88000 115.000
46.90000 123.000
46.92000 115.000
46.94000 120.000
46.96000 116.000
46.98000 115.000
47.00000 98.000
47.02000 110.000
47.04000 87.000
47.06000 110.000
47.08000 130.000
47.10000 116.000
47.12000 102.000
47.14000 118.000
47.16000 129.000
47.18000 104.000
47.20000 107.000
47.22000 109.000
47.24000 115.000
47.26000 122.000
47.28000 104.000
47.30000 119.000
47.32000 125.000
47.34000 135.000
47.36000 127.000
47.38000 118.000
47.40000 108.000
47.42000 114.000
47.44000 103.000
47.46000 115.000
47.48000 111.000
47.50000 107.000
47.52000 99.000
47.54000 105.000
47.56000 121.000
47.58000 129.000
47.60000 95.000
47.62000 132.000
47.64000 133.000
47.66000 127.000
47.68000 111.000
47.70000 115.000
47.72000 112.000
47.74000 115.000
47.76000 123.000
47.78000 121.000
47.80000 122.000
47.82000 130.000
47.84000 117.000
47.86000 116.000
47.88000 124.000
47.90000 146.000
47.92000 115.000
47.94000 143.000
47.96000 138.000
47.98000 135.000
48.00000 126.000
48.02000 181.000
48.04000 145.000
48.06000 172.000
48.08000 159.000
48.10000 148.000
48.12000 145.000
48.14000 118.000
48.16000 135.000
48.18000 124.000
48.20000 143.000
48.22000 103.000
48.24000 121.000
48.26000 134.000
48.28000 114.000
48.30000 105.000
48.32000 117.000
48.34000 112.000
48.36000 126.000
48.38000 136.000
48.40000 137.000
48.42000 122.000
48.44000 105.000
48.46000 104.000
48.48000 110.000
48.50000 105.000
48.52000 119.000
48.54000 100.000
48.56000 118.000
48.58000 137.000
48.60000 119.000
48.62000 117.000
48.64000 117.000
48.66000 103.000
48.68000 103.000
48.70000 112.000
48.72000 112.000
48.74000 117.000
48.76000 110.000
48.78000 115.000
48.80000 114.000
48.82000 121.000
48.84000 109.000
48.86000 136.000
48.88000 135.000
48.90000 123.000
48.92000 105.000
48.94000 111.000
48.96000 127.000
48.98000 111.000
49.00000 105.000
49.02000 119.000
49.04000 119.000
49.06000 111.000
49.08000 103.000
49.10000 132.000
49.12000 135.000
49.14000 127.000
49.16000 141.000
49.18000 123.000
49.20000 131.000
49.22000 122.000
49.24000 125.000
49.26000 108.000
49.28000 138.000
49.30000 110.000
49.32000 131.000
49.34000 143.000
49.36000 87.000
49.38000 103.000
49.40000 111.000
49.42000 125.000
49.44000 122.000
49.46000 106.000
49.48000 129.000
49.50000 95.000
49.52000 131.000
49.54000 109.000
49.56000 115.000
49.58000 134.000
49.60000 125.000
49.62000 138.000
49.64000 125.000
49.66000 141.000
49.68000 123.000
49.70000 114.000
49.72000 122.000
49.74000 131.000
49.76000 128.000
49.78000 139.000
49.80000 117.000
49.82000 123.000
49.84000 146.000
49.86000 147.000
49.88000 164.000
49.90000 132.000
49.92000 156.000
49.94000 134.000
49.96000 157.000
49.98000 163.000
50.00000 178.000
50.02000 221.000
50.04000 213.000
50.06000 249.000
50.08000 251.000
50.10000 303.000
50.12000 320.000
50.14000 335.000
50.16000 406.000
50.18000 469.000
50.20000 466.000
50.22000 521.000
50.24000 569.000
50.26000 565.000
50.28000 559.000
50.30000 498.000
50.32000 495.000
50.34000 443.000
50.36000 449.000
50.38000 445.000
50.40000 409.000
50.42000 364.000
50.44000 294.000
50.46000 306.000
50.48000 233.000
50.50000 245.000
50.52000 209.000
50.54000 193.000
50.56000 187.000
50.58000 188.000
50.60000 187.000
50.62000 175.000
50.64000 174.000
50.66000 161.000
50.68000 136.000
50.70000 143.000
50.72000 137.000
50.74000 125.000
50.76000 133.000
50.78000 131.000
50.80000 143.000
50.82000 165.000
50.84000 119.000
50.86000 143.000
50.88000 130.000
50.90000 135.000
50.92000 128.000
50.94000 124.000
50.96000 119.000
50.98000 115.000
51.00000 115.000
51.02000 99.000
51.04000 141.000
51.06000 120.000
51.08000 135.000
51.10000 132.000
51.12000 133.000
51.14000 118.000
51.16000 130.000
51.18000 124.000
51.20000 110.000
51.22000 130.000
51.24000 121.000
51.26000 114.000
51.28000 118.000
51.30000 117.000
51.32000 123.000
51.34000 126.000
51.36000 103.000
51.38000 128.000
51.40000 132.000
51.42000 107.000
51.44000 123.000
51.46000 114.000
51.48000 111.000
51.50000 112.000
51.52000 106.000
51.54000 116.000
51.56000 109.000
51.58000 116.000
51.60000 115.000
51.62000 124.000
51.64000 100.000
51.66000 109.000
51.68000 127.000
51.70000 133.000
51.72000 106.000
51.74000 120.000
51.76000 112.000
51.78000 114.000
51.80000 122.000
51.82000 124.000
51.84000 124.000
51.86000 117.000
51.88000 117.000
51.90000 120.000
51.92000 109.000
51.94000 115.000
51.96000 117.000
51.98000 132.000
52.00000 111.000
52.02000 120.000
52.04000 110.000
52.06000 138.000
52.08000 130.000
52.10000 141.000
52.12000 137.000
52.14000 133.000
52.16000 141.000
52.18000 153.000
52.20000 165.000
52.22000 162.000
52.24000 153.000
52.26000 166.000
52.28000 208.000
52.30000 208.000
52.32000 226.000
52.34000 303.000
52.36000 313.000
52.38000 349.000
52.40000 383.000
52.42000 358.000
52.44000 398.000
52.46000 411.000
52.48000 381.000
52.50000 369.000
52.52000 367.000
52.54000 362.000
52.56000 327.000
52.58000 336.000
52.60000 310.000
52.62000 305.000
52.64000 314.000
52.66000 254.000
52.68000 236.000
52.70000 215.000
52.72000 197.000
52.74000 189.000
52.76000 168.000
52.78000 150.000
52.80000 158.000
52.82000 145.000
52.84000 149.000
52.86000 108.000
52.88000 127.000
52.90000 118.000
52.92000 133.000
52.94000 122.000
52.96000 110.000
52.98000 118.000
53.00000 123.000
53.02000 127.000
53.04000 103.000
53.06000 108.000
53.08000 111.000
53.10000 112.000
53.12000 120.000
53.14000 101.000
53.16000 121.000
53.18000 107.000
53.20000 114.000
53.22000 97.000
53.24000 124.000
53.26000 110.000
53.28000 96.000
53.30000 136.000
53.32000 93.000
53.34000 116.000
53.36000 96.000
53.38000 92.000
53.40000 95.000
53.42000 99.000
53.44000 115.000
53.46000 101.000
53.48000 96.000
53.50000 110.000
53.52000 102.000
53.54000 94.000
53.56000 101.000
53.58000 98.000
53.60000 107.000
53.62000 97.000
53.64000 87.000
53.66000 94.000
53.68000 109.000
53.70000 107.000
53.72000 97.000
53.74000 88.000
53.76000 95.000
53.78000 94.000
53.80000 97.000
53.82000 113.000
53.84000 90.000
53.86000 96.000
53.88000 103.000
53.90000 87.000
53.92000 83.000
53.94000 100.000
53.96000 100.000
53.98000 84.000
54.00000 83.000
54.02000 96.000
54.04000 79.000
54.06000 117.000
54.08000 87.000
54.10000 92.000
54.12000 95.000
54.14000 95.000
54.16000 104.000
54.18000 91.000
54.20000 111.000
54.22000 118.000
54.24000 99.000
54.26000 106.000
54.28000 107.000
54.30000 101.000
54.32000 111.000
54.34000 114.000
54.36000 103.000
54.38000 114.000
54.40000 102.000
54.42000 125.000
54.44000 124.000
54.46000 121.000
54.48000 127.000
54.50000 147.000
54.52000 151.000
54.54000 163.000
54.56000 159.000
54.58000 142.000
54.60000 154.000
54.62000 158.000
54.64000 155.000
54.66000 150.000
54.68000 157.000
54.70000 161.000
54.72000 152.000
54.74000 149.000
54.76000 143.000
54.78000 133.000
54.80000 121.000
54.82000 126.000
54.84000 121.000
54.86000 108.000
54.88000 123.000
54.90000 119.000
54.92000 117.000
54.94000 107.000
54.96000 95.000
54.98000 103.000
55.00000 109.000
55.02000 89.000
55.04000 123.000
55.06000 86.000
55.08000 83.000
55.10000 85.000
55.12000 122.000
55.14000 107.000
55.16000 97.000
55.18000 105.000
55.20000 92.000
55.22000 109.000
55.24000 93.000
55.26000 77.000
55.28000 100.000
55.30000 88.000
55.32000 93.000
55.34000 97.000
55.36000 96.000
55.38000 91.000
55.40000 82.000
55.42000 86.000
55.44000 84.000
55.46000 88.000
55.48000 84.000
55.50000 95.000
55.52000 85.000
55.54000 87.000
55.56000 89.000
55.58000 78.000
55.60000 83.000
55.62000 91.000
55.64000 95.000
55.66000 87.000
55.68000 93.000
55.70000 80.000
55.72000 72.000
55.74000 95.000
55.76000 89.000
55.78000 88.000
55.80000 90.000
55.82000 94.000
55.84000 88.000
55.86000 99.000
55.88000 72.000
55.90000 90.000
55.92000 101.000
55.94000 97.000
55.96000 104.000
55.98000 81.000
56.00000 80.000
56.02000 94.000
56.04000 98.000
56.06000 91.000
56.08000 90.000
56.10000 82.000
56.12000 93.000
56.14000 87.000
56.16000 78.000
56.18000 100.000
56.20000 89.000
56.22000 90.000
56.24000 102.000
56.26000 87.000
56.28000 86.000
56.30000 84.000
56.32000 118.000
56.34000 88.000
56.36000 99.000
56.38000 88.000
56.40000 78.000
56.42000 99.000
56.44000 110.000
56.46000 108.000
56.48000 116.000
56.50000 98.000
56.52000 100.000
56.54000 110.000
56.56000 112.000
56.58000 106.000
56.60000 97.000
56.62000 88.000
56.64000 96.000
56.66000 94.000
56.68000 98.000
56.70000 97.000
56.72000 100.000
56.74000 111.000
56.76000 109.000
56.78000 94.000
56.80000 84.000
56.82000 85.000
56.84000 108.000
56.86000 69.000
56.88000 79.000
56.90000 87.000
56.92000 95.000
56.94000 93.000
56.96000 83.000
56.98000 75.000
57.00000 83.000
57.02000 73.000
57.04000 102.000
57.06000 85.000
57.08000 73.000
57.10000 79.000
57.12000 96.000
57.14000 95.000
57.16000 78.000
57.18000 82.000
57.20000 91.000
57.22000 86.000
57.24000 82.000
57.26000 87.000
57.28000 97.000
57.30000 95.000
57.32000 92.000
57.34000 86.000
57.36000 94.000
57.38000 103.000
57.40000 67.000
57.42000 79.000
57.44000 83.000
57.46000 93.000
57.48000 84.000
57.50000 82.000
57.52000 93.000
57.54000 86.000
57.56000 84.000
57.58000 84.000
57.60000 84.000
57.62000 85.000
57.64000 92.000
57.66000 93.000
57.68000 94.000
57.70000 82.000
57.72000 97.000
57.74000 100.000
57.76000 79.000
57.78000 113.000
57.80000 98.000
57.82000 80.000
57.84000 108.000
57.86000 101.000
57.88000 93.000
57.90000 98.000
57.92000 106.000
57.94000 120.000
57.96000 92.000
57.98000 100.000
58.00000 93.000
58.02000 97.000
58.04000 106.000
58.06000 103.000
58.08000 85.000
58.10000 98.000
58.12000 102.000
58.14000 101.000
58.16000 83.000
58.18000 87.000
58.20000 99.000
58.22000 113.000
58.24000 82.000
58.26000 85.000
58.28000 96.000
58.30000 101.000
58.32000 93.000
58.34000 108.000
58.36000 116.000
58.38000 105.000
58.40000 106.000
58.42000 115.000
58.44000 124.000
58.46000 117.000
58.48000 134.000
58.50000 123.000
58.52000 115.000
58.54000 138.000
58.56000 136.000
58.58000 154.000
58.60000 141.000
58.62000 161.000
58.64000 175.000
58.66000 200.000
58.68000 193.000
58.70000 226.000
58.72000 209.000
58.74000 192.000
58.76000 194.000
58.78000 208.000
58.80000 199.000
58.82000 185.000
58.84000 166.000
58.86000 163.000
58.88000 179.000
58.90000 159.000
58.92000 157.000
58.94000 125.000
58.96000 131.000
58.98000 107.000
59.00000 109.000
59.02000 122.000
59.04000 109.000
59.06000 108.000
59.08000 98.000
59.10000 113.000
59.12000 113.000
59.14000 106.000
59.16000 106.000
59.18000 105.000
59.20000 94.000
59.22000 111.000
59.24000 102.000
59.26000 105.000
59.28000 100.000
59.30000 101.000
59.32000 83.000
59.34000 126.000
59.36000 90.000
59.38000 87.000
59.40000 95.000
59.42000 116.000
59.44000 94.000
59.46000 104.000
59.48000 109.000
59.50000 103.000
59.52000 109.000
59.54000 105.000
59.56000 101.000
59.58000 97.000
59.60000 88.000
59.62000 105.000
59.64000 100.000
59.66000 106.000
59.68000 106.000
59.70000 97.000
59.72000 107.000
59.74000 106.000
59.76000 110.000
59.78000 78.000
59.80000 94.000
59.82000 106.000
59.84000 99.000
59.86000 94.000
59.88000 99.000
59.90000 119.000
59.92000 102.000
59.94000 86.000
59.96000 114.000
