5.00000 780.000
5.02000 817.000
5.04000 852.000
5.06000 817.000
5.08000 789.000
5.10000 767.000
5.12000 752.000
5.14000 811.000
5.16000 727.000
5.18000 751.000
5.20000 797.000
5.22000 778.000
5.24000 816.000
5.26000 795.000
5.28000 729.000
5.30000 777.000
5.32000 808.000
5.34000 782.000
5.36000 759.000
5.38000 763.000
5.40000 750.000
5.42000 765.000
5.44000 737.000
5.46000 732.000
5.48000 761.000
5.50000 692.000
5.52000 732.000
5.54000 728.000
5.56000 691.000
5.58000 662.000
5.60000 684.000
5.62000 685.000
5.64000 743.000
5.66000 700.000
5.68000 712.000
5.70000 699.000
5.72000 670.000
5.74000 682.000
5.76000 722.000
5.78000 712.000
5.80000 682.000
5.82000 725.000
5.84000 651.000
5.86000 667.000
5.88000 661.000
5.90000 723.000
5.92000 697.000
5.94000 663.000
5.96000 667.000
5.98000 673.000
6.00000 655.000
6.02000 710.000
6.04000 676.000
6.06000 655.000
6.08000 636.000
6.10000 667.000
6.12000 620.000
6.14000 698.000
6.16000 656.000
6.18000 624.000
6.20000 682.000
6.22000 664.000
6.24000 664.000
6.26000 684.000
6.28000 635.000
6.30000 624.000
6.32000 626.000
6.34000 662.000
6.36000 587.000
6.38000 636.000
6.40000 641.000
6.42000 625.000
6.44000 654.000
6.46000 702.000
6.48000 657.000
6.50000 563.000
6.52000 603.000
6.54000 622.000
6.56000 583.000
6.58000 596.000
6.60000 636.000
6.62000 596.000
6.64000 618.000
6.66000 581.000
6.68000 571.000
6.70000 604.000
6.72000 557.000
6.74000 590.000
6.76000 577.000
6.78000 587.000
6.80000 606.000
6.82000 561.000
6.84000 575.000
6.86000 571.000
6.88000 638.000
6.90000 625.000
6.92000 615.000
6.94000 590.000
6.96000 554.000
6.98000 538.000
7.00000 565.000
7.02000 525.000
7.04000 583.000
7.06000 535.000
7.08000 560.000
7.10000 513.000
7.12000 559.000
7.14000 561.000
7.16000 584.000
7.18000 544.000
7.20000 564.000
7.22000 525.000
7.24000 542.000
7.26000 533.000
7.28000 575.000
7.30000 570.000
7.32000 504.000
7.34000 526.000
7.36000 539.000
7.38000 515.000
7.40000 496.000
7.42000 582.000
7.44000 521.000
7.46000 531.000
7.48000 488.000
7.50000 551.000
7.52000 516.000
7.54000 533.000
7.56000 546.000
7.58000 481.000
7.60000 527.000
7.62000 481.000
7.64000 568.000
7.66000 518.000
7.68000 523.000
7.70000 543.000
7.72000 472.000
7.74000 498.000
7.76000 465.000
7.78000 507.000
7.80000 513.000
7.82000 475.000
7.84000 516.000
7.86000 519.000
7.88000 451.000
7.90000 518.000
7.92000 469.000
7.94000 486.000
7.96000 466.000
7.98000 445.000
8.00000 509.000
8.02000 459.000
8.04000 481.000
8.06000 453.000
8.08000 495.000
8.10000 508.000
8.12000 483.000
8.14000 464.000
8.16000 481.000
8.18000 487.000
8.20000 446.000
8.22000 466.000
8.24000 515.000
8.26000 497.000
8.28000 472.000
8.30000 514.000
8.32000 464.000
8.34000 475.000
8.36000 473.000
8.38000 472.000
8.40000 455.000
8.42000 452.000
8.44000 419.000
8.46000 472.000
8.48000 463.000
8.50000 479.000
8.52000 457.000
8.54000 488.000
8.56000 487.000
8.58000 475.000
8.60000 466.000
8.62000 494.000
8.64000 450.000
8.66000 444.000
8.68000 418.000
8.70000 436.000
8.72000 444.000
8.74000 425.000
8.76000 476.000
8.78000 409.000
8.80000 492.000
8.82000 438.000
8.84000 444.000
8.86000 428.000
8.88000 450.000
8.90000 414.000
8.92000 457.000
8.94000 438.000
8.96000 464.000
8.98000 435.000
9.00000 378.000
9.02000 405.000
9.04000 458.000
9.06000 433.000
9.08000 435.000
9.10000 460.000
9.12000 405.000
9.14000 422.000
9.16000 381.000
9.18000 417.000
9.20000 425.000
9.22000 458.000
9.24000 367.000
9.26000 393.000
9.28000 445.000
9.30000 400.000
9.32000 396.000
9.34000 441.000
9.36000 406.000
9.38000 426.000
9.40000 396.000
9.42000 438.000
9.44000 394.000
9.46000 394.000
9.48000 410.000
9.50000 366.000
9.52000 393.000
9.54000 401.000
9.56000 432.000
9.58000 388.000
9.60000 454.000
9.62000 399.000
9.64000 384.000
9.66000 364.000
9.68000 339.000
9.70000 400.000
9.72000 420.000
9.74000 391.000
9.76000 403.000
9.78000 386.000
9.80000 379.000
9.82000 379.000
9.84000 413.000
9.86000 402.000
9.88000 413.000
9.90000 366.000
9.92000 383.000
9.94000 400.000
9.96000 375.000
9.98000 355.000
10.00000 384.000
10.02000 386.000
10.04000 394.000
10.06000 376.000
10.08000 387.000
10.10000 398.000
10.12000 370.000
10.14000 387.000
10.16000 373.000
10.18000 385.000
10.20000 403.000
10.22000 385.000
10.24000 354.000
10.26000 397.000
10.28000 407.000
10.30000 377.000
10.32000 374.000
10.34000 360.000
10.36000 361.000
10.38000 375.000
10.40000 346.000
10.42000 362.000
10.44000 413.000
10.46000 381.000
10.48000 350.000
10.50000 374.000
10.52000 374.000
10.54000 339.000
10.56000 383.000
10.58000 376.000
10.60000 361.000
10.62000 408.000
10.64000 379.000
10.66000 328.000
10.68000 359.000
10.70000 367.000
10.72000 352.000
10.74000 340.000
10.76000 341.000
10.78000 352.000
10.80000 348.000
10.82000 348.000
10.84000 365.000
10.86000 353.000
10.88000 339.000
10.90000 369.000
10.92000 370.000
10.94000 333.000
10.96000 352.000
10.98000 341.000
11.00000 339.000
11.02000 334.000
11.04000 365.000
11.06000 367.000
11.08000 349.000
11.10000 347.000
11.12000 342.000
11.14000 333.000
11.16000 316.000
11.18000 357.000
11.20000 367.000
11.22000 341.000
11.24000 313.000
11.26000 333.000
11.28000 341.000
11.30000 340.000
11.32000 374.000
11.34000 338.000
11.36000 356.000
11.38000 336.000
11.40000 348.000
11.42000 354.000
11.44000 373.000
11.46000 345.000
11.48000 355.000
11.50000 361.000
11.52000 362.000
11.54000 344.000
11.56000 357.000
11.58000 356.000
11.60000 363.000
11.62000 357.000
11.64000 403.000
11.66000 351.000
11.68000 385.000
11.70000 359.000
11.72000 344.000
11.74000 364.000
11.76000 334.000
11.78000 358.000
11.80000 350.000
11.82000 335.000
11.84000 365.000
11.86000 345.000
11.88000 381.000
11.90000 349.000
11.92000 330.000
11.94000 375.000
11.96000 388.000
11.98000 394.000
12.00000 353.000
12.02000 371.000
12.04000 401.000
12.06000 385.000
12.08000 385.000
12.10000 367.000
12.12000 407.000
12.14000 395.000
12.16000 396.000
12.18000 425.000
12.20000 425.000
12.22000 432.000
12.24000 424.000
12.26000 455.000
12.28000 437.000
12.30000 446.000
12.32000 480.000
12.34000 502.000
12.36000 485.000
12.38000 539.000
12.40000 549.000
12.42000 593.000
12.44000 632.000
12.46000 680.000
12.48000 692.000
12.50000 727.000
12.52000 750.000
12.54000 854.000
12.56000 908.000
12.58000 999.000
12.60000 1092.000
12.62000 1148.000
12.64000 1245.000
12.66000 1202.000
12.68000 1173.000
12.70000 1073.000
12.72000 1045.000
12.74000 972.000
12.76000 850.000
12.78000 738.000
12.80000 673.000
12.82000 576.000
12.84000 495.000
12.86000 456.000
12.88000 474.000
12.90000 414.000
12.92000 386.000
12.94000 388.000
12.96000 371.000
12.98000 334.000
13.00000 344.000
13.02000 327.000
13.04000 342.000
13.06000 336.000
13.08000 373.000
13.10000 333.000
13.12000 309.000
13.14000 376.000
13.16000 339.000
13.18000 377.000
13.20000 369.000
13.22000 318.000
13.24000 340.000
13.26000 373.000
13.28000 396.000
13.30000 397.000
13.32000 424.000
13.34000 385.000
13.36000 423.000
13.38000 448.000
13.40000 460.000
13.42000 416.000
13.44000 498.000
13.46000 519.000
13.48000 500.000
13.50000 524.000
13.52000 527.000
13.54000 584.000
13.56000 600.000
13.58000 601.000
13.60000 629.000
13.62000 657.000
13.64000 613.000
13.66000 654.000
13.68000 725.000
13.70000 727.000
13.72000 819.000
13.74000 799.000
13.76000 916.000
13.78000 965.000
13.80000 983.000
13.82000 1057.000
13.84000 1180.000
13.86000 1278.000
13.88000 1317.000
13.90000 1461.000
13.92000 1587.000
13.94000 1736.000
13.96000 1876.000
13.98000 2109.000
14.00000 2329.000
14.02000 2570.000
14.04000 2691.000
14.06000 2961.000
14.08000 3228.000
14.10000 3448.000
14.12000 3179.000
14.14000 2945.000
14.16000 2458.000
14.18000 2018.000
14.20000 1721.000
14.22000 1316.000
14.24000 977.000
14.26000 857.000
14.28000 731.000
14.30000 662.000
14.32000 565.000
14.34000 516.000
14.36000 413.000
14.38000 387.000
14.40000 363.000
14.42000 320.000
14.44000 337.000
14.46000 336.000
14.48000 299.000
14.50000 324.000
14.52000 287.000
14.54000 303.000
14.56000 318.000
14.58000 281.000
14.60000 303.000
14.62000 279.000
14.64000 265.000
14.66000 267.000
14.68000 264.000
14.70000 289.000
14.72000 262.000
14.74000 255.000
14.76000 263.000
14.78000 267.000
14.80000 278.000
14.82000 239.000
14.84000 253.000
14.86000 281.000
14.88000 266.000
14.90000 236.000
14.92000 262.000
14.94000 241.000
14.96000 264.000
14.98000 259.000
15.00000 238.000
15.02000 278.000
15.04000 262.000
15.06000 267.000
15.08000 220.000
15.10000 239.000
15.12000 203.000
15.14000 263.000
15.16000 237.000
15.18000 225.000
15.20000 253.000
15.22000 261.000
15.24000 251.000
15.26000 235.000
15.28000 232.000
15.30000 251.000
15.32000 246.000
15.34000 259.000
15.36000 232.000
15.38000 254.000
15.40000 249.000
15.42000 248.000
15.44000 235.000
15.46000 246.000
15.48000 266.000
15.50000 270.000
15.52000 259.000
15.54000 259.000
15.56000 262.000
15.58000 244.000
15.60000 236.000
15.62000 252.000
15.64000 235.000
15.66000 210.000
15.68000 214.000
15.70000 220.000
15.72000 228.000
15.74000 227.000
15.76000 232.000
15.78000 225.000
15.80000 266.000
15.82000 233.000
15.84000 258.000
15.86000 238.000
15.88000 242.000
15.90000 234.000
15.92000 242.000
15.94000 226.000
15.96000 216.000
15.98000 221.000
16.00000 261.000
16.02000 255.000
16.04000 258.000
16.06000 224.000
16.08000 227.000
16.10000 237.000
16.12000 201.000
16.14000 264.000
16.16000 244.000
16.18000 244.000
16.20000 259.000
16.22000 246.000
16.24000 239.000
16.26000 254.000
16.28000 269.000
16.30000 214.000
16.32000 238.000
16.34000 213.000
16.36000 234.000
16.38000 223.000
16.40000 220.000
16.42000 208.000
16.44000 214.000
16.46000 226.000
16.48000 231.000
16.50000 244.000
16.52000 195.000
16.54000 209.000
16.56000 246.000
16.58000 208.000
16.60000 233.000
16.62000 226.000
16.64000 227.000
16.66000 266.000
16.68000 220.000
16.70000 193.000
16.72000 224.000
16.74000 230.000
16.76000 231.000
16.78000 266.000
16.80000 266.000
16.82000 257.000
16.84000 230.000
16.86000 237.000
16.88000 227.000
16.90000 250.000
16.92000 234.000
16.94000 220.000
16.96000 208.000
16.98000 216.000
17.00000 243.000
17.02000 222.000
17.04000 226.000
17.06000 197.000
17.08000 211.000
17.10000 214.000
17.12000 191.000
17.14000 246.000
17.16000 242.000
17.18000 228.000
17.20000 234.000
17.22000 213.000
17.24000 240.000
17.26000 212.000
17.28000 193.000
17.30000 216.000
17.32000 239.000
17.34000 256.000
17.36000 236.000
17.38000 214.000
17.40000 233.000
17.42000 233.000
17.44000 230.000
17.46000 231.000
17.48000 194.000
17.50000 208.000
17.52000 213.000
17.54000 188.000
17.56000 220.000
17.58000 197.000
17.60000 216.000
17.62000 212.000
17.64000 243.000
17.66000 222.000
17.68000 220.000
17.70000 204.000
17.72000 208.000
17.74000 204.000
17.76000 234.000
17.78000 242.000
17.80000 222.000
17.82000 213.000
17.84000 224.000
17.86000 246.000
17.88000 219.000
17.90000 229.000
17.92000 224.000
17.94000 223.000
17.96000 194.000
17.98000 231.000
18.00000 205.000
18.02000 232.000
18.04000 238.000
18.06000 200.000
18.08000 195.000
18.10000 197.000
18.12000 234.000
18.14000 217.000
18.16000 205.000
18.18000 193.000
18.20000 216.000
18.22000 196.000
18.24000 223.000
18.26000 203.000
18.28000 207.000
18.30000 249.000
18.32000 225.000
18.34000 206.000
18.36000 225.000
18.38000 222.000
18.40000 245.000
18.42000 218.000
18.44000 204.000
18.46000 203.000
18.48000 240.000
18.50000 213.000
18.52000 226.000
18.54000 214.000
18.56000 214.000
18.58000 209.000
18.60000 234.000
18.62000 214.000
18.64000 220.000
18.66000 228.000
18.68000 215.000
18.70000 221.000
18.72000 216.000
18.74000 220.000
18.76000 216.000
18.78000 217.000
18.80000 192.000
18.82000 204.000
18.84000 220.000
18.86000 202.000
18.88000 197.000
18.90000 232.000
18.92000 206.000
18.94000 216.000
18.96000 207.000
18.98000 220.000
19.00000 218.000
19.02000 236.000
19.04000 228.000
19.06000 243.000
19.08000 225.000
19.10000 220.000
19.12000 240.000
19.14000 235.000
19.16000 254.000
19.18000 219.000
19.20000 210.000
19.22000 241.000
19.24000 227.000
19.26000 228.000
19.28000 221.000
19.30000 237.000
19.32000 229.000
19.34000 205.000
19.36000 226.000
19.38000 205.000
19.40000 247.000
19.42000 232.000
19.44000 228.000
19.46000 242.000
19.48000 251.000
19.50000 251.000
19.52000 254.000
19.54000 266.000
19.56000 261.000
19.58000 279.000
19.60000 279.000
19.62000 295.000
19.64000 284.000
19.66000 345.000
19.68000 310.000
19.70000 316.000
19.72000 373.000
19.74000 380.000
19.76000 436.000
19.78000 407.000
19.80000 459.000
19.82000 510.000
19.84000 514.000
19.86000 590.000
19.88000 649.000
19.90000 720.000
19.92000 810.000
19.94000 900.000
19.96000 1011.000
19.98000 1034.000
20.00000 1013.000
20.02000 954.000
20.04000 937.000
20.06000 806.000
20.08000 678.000
20.10000 591.000
20.12000 438.000
20.14000 402.000
20.16000 352.000
20.18000 317.000
20.20000 313.000
20.22000 241.000
20.24000 304.000
20.26000 266.000
20.28000 254.000
20.30000 205.000
20.32000 223.000
20.34000 223.000
20.36000 238.000
20.38000 211.000
20.40000 225.000
20.42000 216.000
20.44000 222.000
20.46000 213.000
20.48000 247.000
20.50000 213.000
20.52000 212.000
20.54000 220.000
20.56000 218.000
20.58000 216.000
20.60000 215.000
20.62000 175.000
20.64000 203.000
20.66000 216.000
20.68000 215.000
20.70000 262.000
20.72000 243.000
20.74000 233.000
20.76000 214.000
20.78000 226.000
20.80000 218.000
20.82000 232.000
20.84000 209.000
20.86000 228.000
20.88000 240.000
20.90000 202.000
20.92000 201.000
20.94000 201.000
20.96000 234.000
20.98000 226.000
21.00000 228.000
21.02000 232.000
21.04000 219.000
21.06000 220.000
21.08000 212.000
21.10000 198.000
21.12000 226.000
21.14000 222.000
21.16000 210.000
21.18000 219.000
21.20000 242.000
21.22000 213.000
21.24000 203.000
21.26000 243.000
21.28000 205.000
21.30000 228.000
21.32000 227.000
21.34000 236.000
21.36000 222.000
21.38000 222.000
21.40000 216.000
21.42000 224.000
21.44000 217.000
21.46000 233.000
21.48000 225.000
21.50000 217.000
21.52000 216.000
21.54000 216.000
21.56000 228.000
21.58000 224.000
21.60000 201.000
21.62000 209.000
21.64000 210.000
21.66000 220.000
21.68000 220.000
21.70000 248.000
21.72000 202.000
21.74000 228.000
21.76000 224.000
21.78000 239.000
21.80000 204.000
21.82000 212.000
21.84000 245.000
21.86000 222.000
21.88000 234.000
21.90000 225.000
21.92000 209.000
21.94000 242.000
21.96000 236.000
21.98000 232.000
22.00000 245.000
22.02000 232.000
22.04000 206.000
22.06000 230.000
22.08000 206.000
22.10000 255.000
22.12000 244.000
22.14000 206.000
22.16000 215.000
22.18000 229.000
22.20000 239.000
22.22000 254.000
22.24000 218.000
22.26000 207.000
22.28000 230.000
22.30000 196.000
22.32000 230.000
22.34000 215.000
22.36000 224.000
22.38000 235.000
22.40000 242.000
22.42000 258.000
22.44000 225.000
22.46000 234.000
22.48000 249.000
22.50000 235.000
22.52000 244.000
22.54000 221.000
22.56000 247.000
22.58000 226.000
22.60000 255.000
22.62000 222.000
22.64000 211.000
22.66000 215.000
22.68000 238.000
22.70000 224.000
22.72000 233.000
22.74000 245.000
22.76000 244.000
22.78000 222.000
22.80000 249.000
22.82000 244.000
22.84000 249.000
22.86000 263.000
22.88000 288.000
22.90000 254.000
22.92000 248.000
22.94000 265.000
22.96000 291.000
22.98000 238.000
23.00000 237.000
23.02000 238.000
23.04000 256.000
23.06000 231.000
23.08000 250.000
23.10000 242.000
23.12000 220.000
23.14000 258.000
23.16000 246.000
23.18000 282.000
23.20000 229.000
23.22000 252.000
23.24000 243.000
23.26000 246.000
23.28000 245.000
23.30000 264.000
23.32000 237.000
23.34000 241.000
23.36000 243.000
23.38000 256.000
23.40000 246.000
23.42000 230.000
23.44000 268.000
23.46000 255.000
23.48000 265.000
23.50000 251.000
23.52000 244.000
23.54000 243.000
23.56000 237.000
23.58000 251.000
23.60000 234.000
23.62000 229.000
23.64000 272.000
23.66000 226.000
23.68000 209.000
23.70000 245.000
23.72000 247.000
23.74000 259.000
23.76000 236.000
23.78000 239.000
23.80000 252.000
23.82000 250.000
23.84000 250.000
23.86000 240.000
23.88000 243.000
23.90000 222.000
23.92000 257.000
23.94000 231.000
23.96000 231.000
23.98000 276.000
24.00000 256.000
24.02000 268.000
24.04000 224.000
24.06000 250.000
24.08000 258.000
24.10000 253.000
24.12000 289.000
24.14000 291.000
24.16000 321.000
24.18000 251.000
24.20000 339.000
24.22000 343.000
24.24000 363.000
24.26000 366.000
24.28000 380.000
24.30000 402.000
24.32000 439.000
24.34000 487.000
24.36000 518.000
24.38000 562.000
24.40000 658.000
24.42000 748.000
24.44000 794.000
24.46000 869.000
24.48000 929.000
24.50000 1115.000
24.52000 1189.000
24.54000 1314.000
24.56000 1245.000
24.58000 1217.000
24.60000 1010.000
24.62000 933.000
24.64000 807.000
24.66000 663.000
24.68000 555.000
24.70000 482.000
24.72000 419.000
24.74000 408.000
24.76000 343.000
24.78000 314.000
24.80000 289.000
24.82000 283.000
24.84000 246.000
24.86000 261.000
24.88000 282.000
24.90000 276.000
24.92000 253.000
24.94000 268.000
24.96000 275.000
24.98000 278.000
25.00000 273.000
25.02000 250.000
25.04000 252.000
25.06000 224.000
25.08000 231.000
25.10000 220.000
25.12000 237.000
25.14000 272.000
25.16000 253.000
25.18000 260.000
25.20000 269.000
25.22000 242.000
25.24000 242.000
25.26000 215.000
25.28000 234.000
25.30000 237.000
25.32000 224.000
25.34000 244.000
25.36000 307.000
25.38000 277.000
25.40000 246.000
25.42000 281.000
25.44000 269.000
25.46000 251.000
25.48000 253.000
25.50000 260.000
25.52000 270.000
25.54000 259.000
25.56000 283.000
25.58000 271.000
25.60000 255.000
25.62000 268.000
25.64000 253.000
25.66000 231.000
25.68000 253.000
25.70000 231.000
25.72000 252.000
25.74000 254.000
25.76000 251.000
25.78000 238.000
25.80000 268.000
25.82000 235.000
25.84000 240.000
25.86000 241.000
25.88000 246.000
25.90000 235.000
25.92000 256.000
25.94000 228.000
25.96000 253.000
25.98000 270.000
26.00000 231.000
26.02000 266.000
26.04000 233.000
26.06000 248.000
26.08000 243.000
26.10000 243.000
26.12000 247.000
26.14000 259.000
26.16000 237.000
26.18000 245.000
26.20000 236.000
26.22000 259.000
26.24000 242.000
26.26000 239.000
26.28000 267.000
26.30000 232.000
26.32000 273.000
26.34000 249.000
26.36000 240.000
26.38000 247.000
26.40000 240.000
26.42000 222.000
26.44000 267.000
26.46000 216.000
26.48000 239.000
26.50000 236.000
26.52000 282.000
26.54000 251.000
26.56000 261.000
26.58000 244.000
26.60000 233.000
26.62000 234.000
26.64000 228.000
26.66000 248.000
26.68000 239.000
26.70000 257.000
26.72000 261.000
26.74000 240.000
26.76000 231.000
26.78000 224.000
26.80000 245.000
26.82000 224.000
26.84000 236.000
26.86000 245.000
26.88000 262.000
26.90000 250.000
26.92000 233.000
26.94000 250.000
26.96000 263.000
26.98000 246.000
27.00000 248.000
27.02000 261.000
27.04000 264.000
27.06000 237.000
27.08000 269.000
27.10000 294.000
27.12000 267.000
27.14000 273.000
27.16000 275.000
27.18000 281.000
27.20000 309.000
27.22000 304.000
27.24000 265.000
27.26000 276.000
27.28000 273.000
27.30000 249.000
27.32000 267.000
27.34000 277.000
27.36000 293.000
27.38000 281.000
27.40000 277.000
27.42000 250.000
27.44000 268.000
27.46000 248.000
27.48000 279.000
27.50000 218.000
27.52000 292.000
27.54000 276.000
27.56000 250.000
27.58000 262.000
27.60000 271.000
27.62000 272.000
27.64000 299.000
27.66000 281.000
27.68000 283.000
27.70000 273.000
27.72000 287.000
27.74000 286.000
27.76000 299.000
27.78000 283.000
27.80000 262.000
27.82000 313.000
27.84000 270.000
27.86000 288.000
27.88000 303.000
27.90000 359.000
27.92000 339.000
27.94000 347.000
27.96000 334.000
27.98000 330.000
28.00000 447.000
28.02000 415.000
28.04000 420.000
28.06000 471.000
28.08000 499.000
28.10000 583.000
28.12000 597.000
28.14000 686.000
28.16000 733.000
28.18000 770.000
28.20000 955.000
28.22000 1084.000
28.24000 1205.000
28.26000 1338.000
28.28000 1608.000
28.30000 1821.000
28.32000 1995.000
28.34000 2445.000
28.36000 2777.000
28.38000 2996.000
28.40000 3168.000
28.42000 3349.000
28.44000 3184.000
28.46000 3078.000
28.48000 2660.000
28.50000 2387.000
28.52000 2028.000
28.54000 1560.000
28.56000 1321.000
28.58000 1015.000
28.60000 879.000
28.62000 662.000
28.64000 619.000
28.66000 568.000
28.68000 451.000
28.70000 435.000
28.72000 375.000
28.74000 368.000
28.76000 324.000
28.78000 309.000
28.80000 309.000
28.82000 322.000
28.84000 303.000
28.86000 278.000
28.88000 291.000
28.90000 294.000
28.92000 259.000
28.94000 247.000
28.96000 246.000
28.98000 251.000
29.00000 252.000
29.02000 244.000
29.04000 268.000
29.06000 258.000
29.08000 246.000
29.10000 240.000
29.12000 217.000
29.14000 257.000
29.16000 236.000
29.18000 242.000
29.20000 264.000
29.22000 237.000
29.24000 241.000
29.26000 241.000
29.28000 212.000
29.30000 239.000
29.32000 212.000
29.34000 250.000
29.36000 221.000
29.38000 225.000
29.40000 251.000
29.42000 221.000
29.44000 226.000
29.46000 242.000
29.48000 237.000
29.50000 230.000
29.52000 228.000
29.54000 224.000
29.56000 238.000
29.58000 204.000
29.60000 258.000
29.62000 214.000
29.64000 222.000
29.66000 216.000
29.68000 201.000
29.70000 227.000
29.72000 223.000
29.74000 204.000
29.76000 224.000
29.78000 195.000
29.80000 203.000
29.82000 234.000
29.84000 197.000
29.86000 244.000
29.88000 222.000
29.90000 209.000
29.92000 248.000
29.94000 223.000
29.96000 222.000
29.98000 218.000
30.00000 207.000
30.02000 247.000
30.04000 213.000
30.06000 197.000
30.08000 194.000
30.10000 216.000
30.12000 228.000
30.14000 223.000
30.16000 201.000
30.18000 189.000
30.20000 234.000
30.22000 216.000
30.24000 202.000
30.26000 206.000
30.28000 237.000
30.30000 230.000
30.32000 238.000
30.34000 224.000
30.36000 239.000
30.38000 250.000
30.40000 230.000
30.42000 258.000
30.44000 262.000
30.46000 276.000
30.48000 251.000
30.50000 260.000
30.52000 260.000
30.54000 267.000
30.56000 229.000
30.58000 206.000
30.60000 243.000
30.62000 247.000
30.64000 200.000
30.66000 201.000
30.68000 233.000
30.70000 231.000
30.72000 239.000
30.74000 189.000
30.76000 220.000
30.78000 252.000
30.80000 247.000
30.82000 211.000
30.84000 199.000
30.86000 226.000
30.88000 236.000
30.90000 249.000
30.92000 252.000
30.94000 249.000
30.96000 219.000
30.98000 228.000
31.00000 262.000
31.02000 248.000
31.04000 270.000
31.06000 218.000
31.08000 249.000
31.10000 253.000
31.12000 251.000
31.14000 254.000
31.16000 248.000
31.18000 242.000
31.20000 233.000
31.22000 273.000
31.24000 253.000
31.26000 250.000
31.28000 276.000
31.30000 236.000
31.32000 244.000
31.34000 275.000
31.36000 265.000
31.38000 280.000
31.40000 282.000
31.42000 296.000
31.44000 306.000
31.46000 328.000
31.48000 349.000
31.50000 387.000
31.52000 397.000
31.54000 450.000
31.56000 540.000
31.58000 611.000
31.60000 685.000
31.62000 690.000
31.64000 844.000
31.66000 1035.000
31.68000 1155.000
31.70000 1302.000
31.72000 1570.000
31.74000 1855.000
31.76000 2167.000
31.78000 2489.000
31.80000 2904.000
31.82000 3259.000
31.84000 3286.000
31.86000 3454.000
31.88000 3230.000
31.90000 2863.000
31.92000 2558.000
31.94000 2264.000
31.96000 1820.000
31.98000 1563.000
32.00000 1185.000
32.02000 977.000
32.04000 785.000
32.06000 698.000
32.08000 569.000
32.10000 433.000
32.12000 403.000
32.14000 360.000
32.16000 312.000
32.18000 302.000
32.20000 310.000
32.22000 301.000
32.24000 229.000
32.26000 223.000
32.28000 237.000
32.30000 234.000
32.32000 235.000
32.34000 220.000
32.36000 230.000
32.38000 206.000
32.40000 215.000
32.42000 217.000
32.44000 224.000
32.46000 210.000
32.48000 195.000
32.50000 185.000
32.52000 211.000
32.54000 191.000
32.56000 196.000
32.58000 198.000
32.60000 221.000
32.62000 196.000
32.64000 195.000
32.66000 190.000
32.68000 204.000
32.70000 196.000
32.72000 213.000
32.74000 189.000
32.76000 184.000
32.78000 196.000
32.80000 194.000
32.82000 194.000
32.84000 191.000
32.86000 183.000
32.88000 197.000
32.90000 179.000
32.92000 211.000
32.94000 183.000
32.96000 199.000
32.98000 181.000
33.00000 162.000
33.02000 173.000
33.04000 184.000
33.06000 182.000
33.08000 187.000
33.10000 182.000
33.12000 179.000
33.14000 183.000
33.16000 187.000
33.18000 196.000
33.20000 198.000
33.22000 190.000
33.24000 166.000
33.26000 194.000
33.28000 177.000
33.30000 176.000
33.32000 184.000
33.34000 195.000
33.36000 177.000
33.38000 199.000
33.40000 194.000
33.42000 204.000
33.44000 197.000
33.46000 204.000
33.48000 202.000
33.50000 160.000
33.52000 205.000
33.54000 162.000
33.56000 180.000
33.58000 179.000
33.60000 178.000
33.62000 184.000
33.64000 161.000
33.66000 170.000
33.68000 168.000
33.70000 161.000
33.72000 174.000
33.74000 169.000
33.76000 184.000
33.78000 166.000
33.80000 158.000
33.82000 181.000
33.84000 162.000
33.86000 187.000
33.88000 189.000
33.90000 177.000
33.92000 156.000
33.94000 175.000
33.96000 143.000
33.98000 169.000
34.00000 168.000
34.02000 190.000
34.04000 196.000
34.06000 199.000
34.08000 186.000
34.10000 157.000
34.12000 171.000
34.14000 178.000
34.16000 182.000
34.18000 169.000
34.20000 216.000
34.22000 177.000
34.24000 174.000
34.26000 151.000
34.28000 190.000
34.30000 177.000
34.32000 200.000
34.34000 181.000
34.36000 186.000
34.38000 160.000
34.40000 187.000
34.42000 187.000
34.44000 196.000
34.46000 183.000
34.48000 181.000
34.50000 182.000
34.52000 174.000
34.54000 197.000
34.56000 177.000
34.58000 183.000
34.60000 209.000
34.62000 189.000
34.64000 230.000
34.66000 203.000
34.68000 211.000
34.70000 214.000
34.72000 272.000
34.74000 248.000
34.76000 251.000
34.78000 282.000
34.80000 312.000
34.82000 346.000
34.84000 378.000
34.86000 401.000
34.88000 425.000
34.90000 540.000
34.92000 577.000
34.94000 657.000
34.96000 699.000
34.98000 722.000
35.00000 682.000
35.02000 661.000
35.04000 559.000
35.06000 557.000
35.08000 474.000
35.10000 444.000
35.12000 411.000
35.14000 373.000
35.16000 334.000
35.18000 271.000
35.20000 251.000
35.22000 211.000
35.24000 227.000
35.26000 208.000
35.28000 216.000
35.30000 181.000
35.32000 194.000
35.34000 206.000
35.36000 164.000
35.38000 187.000
35.40000 179.000
35.42000 186.000
35.44000 183.000
35.46000 175.000
35.48000 178.000
35.50000 177.000
35.52000 160.000
35.54000 164.000
35.56000 157.000
35.58000 193.000
35.60000 169.000
35.62000 158.000
35.64000 152.000
35.66000 160.000
35.68000 172.000
35.70000 161.000
35.72000 157.000
35.74000 173.000
35.76000 154.000
35.78000 164.000
35.80000 169.000
35.82000 172.000
35.84000 173.000
35.86000 159.000
35.88000 147.000
35.90000 166.000
35.92000 156.000
35.94000 170.000
35.96000 161.000
35.98000 173.000
36.00000 158.000
36.02000 188.000
36.04000 156.000
36.06000 135.000
36.08000 167.000
36.10000 178.000
36.12000 161.000
36.14000 160.000
36.16000 177.000
36.18000 177.000
36.20000 163.000
36.22000 169.000
36.24000 156.000
36.26000 178.000
36.28000 180.000
36.30000 158.000
36.32000 160.000
36.34000 136.000
36.36000 157.000
36.38000 144.000
36.40000 168.000
36.42000 160.000
36.44000 181.000
36.46000 168.000
36.48000 184.000
36.50000 188.000
36.52000 181.000
36.54000 188.000
36.56000 159.000
36.58000 163.000
36.60000 150.000
36.62000 137.000
36.64000 174.000
36.66000 180.000
36.68000 163.000
36.70000 170.000
36.72000 137.000
36.74000 167.000
36.76000 151.000
36.78000 156.000
36.80000 151.000
36.82000 150.000
36.84000 171.000
36.86000 133.000
36.88000 176.000
36.90000 145.000
36.92000 156.000
36.94000 146.000
36.96000 141.000
36.98000 143.000
37.00000 177.000
37.02000 157.000
37.04000 144.000
37.06000 176.000
37.08000 153.000
37.10000 143.000
37.12000 169.000
37.14000 132.000
37.16000 152.000
37.18000 168.000
37.20000 152.000
37.22000 172.000
37.24000 167.000
37.26000 158.000
37.28000 153.000
37.30000 150.000
37.32000 161.000
37.34000 150.000
37.36000 148.000
37.38000 158.000
37.40000 161.000
37.42000 151.000
37.44000 178.000
37.46000 157.000
37.48000 174.000
37.50000 160.000
37.52000 154.000
37.54000 174.000
37.56000 165.000
37.58000 171.000
37.60000 156.000
37.62000 170.000
37.64000 183.000
37.66000 182.000
37.68000 168.000
37.70000 187.000
37.72000 163.000
37.74000 158.000
37.76000 153.000
37.78000 141.000
37.80000 189.000
37.82000 164.000
37.84000 137.000
37.86000 145.000
37.88000 161.000
37.90000 167.000
37.92000 177.000
37.94000 155.000
37.96000 154.000
37.98000 138.000
38.00000 163.000
38.02000 169.000
38.04000 136.000
38.06000 155.000
38.08000 146.000
38.10000 138.000
38.12000 163.000
38.14000 151.000
38.16000 190.000
38.18000 162.000
38.20000 165.000
38.22000 191.000
38.24000 163.000
38.26000 152.000
38.28000 147.000
38.30000 139.000
38.32000 165.000
38.34000 154.000
38.36000 169.000
38.38000 150.000
38.40000 161.000
38.42000 174.000
38.44000 186.000
38.46000 176.000
38.48000 179.000
38.50000 216.000
38.52000 193.000
38.54000 198.000
38.56000 220.000
38.58000 218.000
38.60000 224.000
38.62000 217.000
38.64000 235.000
38.66000 237.000
38.68000 237.000
38.70000 237.000
38.72000 225.000
38.74000 205.000
38.76000 241.000
38.78000 219.000
38.80000 215.000
38.82000 219.000
38.84000 182.000
38.86000 191.000
38.88000 172.000
38.90000 213.000
38.92000 204.000
38.94000 198.000
38.96000 162.000
38.98000 165.000
39.00000 151.000
39.02000 165.000
39.04000 177.000
39.06000 159.000
39.08000 170.000
39.10000 178.000
39.12000 162.000
39.14000 161.000
39.16000 191.000
39.18000 178.000
39.20000 160.000
39.22000 172.000
39.24000 187.000
39.26000 181.000
39.28000 192.000
39.30000 179.000
39.32000 166.000
39.34000 165.000
39.36000 186.000
39.38000 182.000
39.40000 205.000
39.42000 177.000
39.44000 210.000
39.46000 206.000
39.48000 211.000
39.50000 247.000
39.52000 230.000
39.54000 227.000
39.56000 261.000
39.58000 235.000
39.60000 228.000
39.62000 239.000
39.64000 215.000
39.66000 205.000
39.68000 211.000
39.70000 204.000
39.72000 169.000
39.74000 191.000
39.76000 189.000
39.78000 190.000
39.80000 198.000
39.82000 177.000
39.84000 209.000
39.86000 187.000
39.88000 174.000
39.90000 213.000
39.92000 221.000
39.94000 182.000
39.96000 197.000
39.98000 186.000
40.00000 214.000
40.02000 186.000
40.04000 226.000
40.06000 206.000
40.08000 203.000
40.10000 197.000
40.12000 191.000
40.14000 180.000
40.16000 186.000
40.18000 187.000
40.20000 220.000
40.22000 226.000
40.24000 234.000
40.26000 261.000
40.28000 259.000
40.30000 286.000
40.32000 314.000
40.34000 342.000
40.36000 371.000
40.38000 401.000
40.40000 491.000
40.42000 522.000
40.44000 637.000
40.46000 745.000
40.48000 859.000
40.50000 1067.000
40.52000 1235.000
40.54000 1376.000
40.56000 1582.000
40.58000 1780.000
40.60000 2024.000
40.62000 2024.000
40.64000 1921.000
40.66000 1792.000
40.68000 1689.000
40.70000 1493.000
40.72000 1399.000
40.74000 1177.000
40.76000 1033.000
40.78000 813.000
40.80000 711.000
40.82000 548.000
40.84000 445.000
40.86000 399.000
40.88000 367.000
40.90000 300.000
40.92000 307.000
40.94000 290.000
40.96000 269.000
40.98000 234.000
41.00000 230.000
41.02000 245.000
41.04000 229.000
41.06000 253.000
41.08000 240.000
41.10000 235.000
41.12000 222.000
41.14000 240.000
41.16000 248.000
41.18000 250.000
41.20000 229.000
41.22000 234.000
41.24000 278.000
41.26000 262.000
41.28000 251.000
41.30000 289.000
41.32000 267.000
41.34000 268.000
41.36000 258.000
41.38000 242.000
41.40000 246.000
41.42000 230.000
41.44000 256.000
41.46000 231.000
41.48000 240.000
41.50000 245.000
41.52000 224.000
41.54000 206.000
41.56000 204.000
41.58000 198.000
41.60000 213.000
41.62000 199.000
41.64000 235.000
41.66000 211.000
41.68000 229.000
41.70000 205.000
41.72000 203.000
41.74000 195.000
41.76000 196.000
41.78000 208.000
41.80000 201.000
41.82000 183.000
41.84000 177.000
41.86000 193.000
41.88000 192.000
41.90000 200.000
41.92000 183.000
41.94000 214.000
41.96000 178.000
41.98000 184.000
42.00000 201.000
42.02000 205.000
42.04000 191.000
42.06000 188.000
42.08000 211.000
42.10000 178.000
42.12000 185.000
42.14000 176.000
42.16000 191.000
42.18000 180.000
42.20000 165.000
42.22000 173.000
42.24000 210.000
42.26000 171.000
42.28000 181.000
42.30000 198.000
42.32000 168.000
42.34000 188.000
42.36000 201.000
42.38000 197.000
42.40000 188.000
42.42000 222.000
42.44000 174.000
42.46000 177.000
42.48000 197.000
42.50000 206.000
42.52000 184.000
42.54000 217.000
42.56000 176.000
42.58000 149.000
42.60000 195.000
42.62000 192.000
42.64000 175.000
42.66000 204.000
42.68000 207.000
42.70000 186.000
42.72000 205.000
42.74000 210.000
42.76000 191.000
42.78000 215.000
42.80000 241.000
42.82000 204.000
42.84000 242.000
42.86000 260.000
42.88000 241.000
42.90000 276.000
42.92000 302.000
42.94000 301.000
42.96000 345.000
42.98000 413.000
43.00000 451.000
43.02000 505.000
43.04000 568.000
43.06000 651.000
43.08000 831.000
43.10000 931.000
43.12000 1142.000
43.14000 1236.000
43.16000 1431.000
43.18000 1464.000
43.20000 1593.000
43.22000 1515.000
43.24000 1359.000
43.26000 1275.000
43.28000 1200.000
43.30000 1033.000
43.32000 968.000
43.34000 801.000
43.36000 790.000
43.38000 591.000
43.40000 511.000
43.42000 401.000
43.44000 359.000
43.46000 342.000
43.48000 294.000
43.50000 278.000
43.52000 247.000
43.54000 257.000
43.56000 227.000
43.58000 227.000
43.60000 195.000
43.62000 189.000
43.64000 184.000
43.66000 195.000
43.68000 193.000
43.70000 189.000
43.72000 197.000
43.74000 178.000
43.76000 168.000
43.78000 194.000
43.80000 196.000
43.82000 164.000
43.84000 197.000
43.86000 167.000
43.88000 187.000
43.90000 174.000
43.92000 167.000
43.94000 180.000
43.96000 185.000
43.98000 136.000
44.00000 160.000
44.02000 164.000
44.04000 192.000
44.06000 176.000
44.08000 170.000
44.10000 162.000
44.12000 159.000
44.14000 177.000
44.16000 151.000
44.18000 168.000
44.20000 177.000
44.22000 159.000
44.24000 170.000
44.26000 165.000
44.28000 147.000
44.30000 170.000
44.32000 160.000
44.34000 176.000
44.36000 183.000
44.38000 149.000
44.40000 185.000
44.42000 143.000
44.44000 172.000
44.46000 170.000
44.48000 160.000
44.50000 142.000
44.52000 168.000
44.54000 185.000
44.56000 162.000
44.58000 181.000
44.60000 169.000
44.62000 144.000
44.64000 167.000
44.66000 169.000
44.68000 142.000
44.70000 150.000
44.72000 168.000
44.74000 162.000
44.76000 147.000
44.78000 171.000
44.80000 144.000
44.82000 187.000
44.84000 172.000
44.86000 151.000
44.88000 148.000
44.90000 180.000
44.92000 161.000
44.94000 154.000
44.96000 149.000
44.98000 169.000
45.00000 134.000
45.02000 178.000
45.04000 161.000
45.06000 170.000
45.08000 157.000
45.10000 156.000
45.12000 150.000
45.14000 167.000
45.16000 130.000
45.18000 143.000
45.20000 155.000
45.22000 165.000
45.24000 152.000
45.26000 178.000
45.28000 146.000
45.30000 151.000
45.32000 165.000
45.34000 136.000
45.36000 143.000
45.38000 149.000
45.40000 154.000
45.42000 155.000
45.44000 169.000
45.46000 179.000
45.48000 172.000
45.50000 173.000
45.52000 188.000
45.54000 179.000
45.56000 185.000
45.58000 169.000
45.60000 212.000
45.62000 183.000
45.64000 195.000
45.66000 216.000
45.68000 199.000
45.70000 197.000
45.72000 201.000
45.74000 195.000
45.76000 198.000
45.78000 184.000
45.80000 192.000
45.82000 193.000
45.84000 185.000
45.86000 165.000
45.88000 169.000
45.90000 171.000
45.92000 157.000
45.94000 151.000
45.96000 149.000
45.98000 170.000
46.00000 156.000
46.02000 123.000
46.04000 161.000
46.06000 152.000
46.08000 140.000
46.10000 150.000
46.12000 128.000
46.14000 158.000
46.16000 139.000
46.18000 153.000
46.20000 126.000
46.22000 143.000
46.24000 158.000
46.26000 160.000
46.28000 149.000
46.30000 138.000
46.32000 168.000
46.34000 145.000
46.36000 151.000
46.38000 152.000
46.40000 150.000
46.42000 153.000
46.44000 165.000
46.46000 148.000
46.48000 153.000
46.50000 142.000
46.52000 146.000
46.54000 144.000
46.56000 130.000
46.58000 128.000
46.60000 129.000
46.62000 156.000
46.64000 143.000
46.66000 138.000
46.68000 154.000
46.70000 159.000
46.72000 138.000
46.74000 146.000
46.76000 140.000
46.78000 150.000
46.80000 117.000
46.82000 141.000
46.84000 149.000
46.86000 140.000
46.88000 130.000
46.90000 139.000
46.92000 151.000
46.94000 132.000
46.96000 130.000
46.98000 153.000
47.00000 136.000
47.02000 148.000
47.04000 149.000
47.06000 141.000
47.08000 145.000
47.10000 137.000
47.12000 124.000
47.14000 138.000
47.16000 135.000
47.18000 152.000
47.20000 129.000
47.22000 161.000
47.24000 129.000
47.26000 116.000
47.28000 149.000
47.30000 127.000
47.32000 135.000
47.34000 136.000
47.36000 150.000
47.38000 130.000
47.40000 168.000
47.42000 115.000
47.44000 155.000
47.46000 140.000
47.48000 136.000
47.50000 147.000
47.52000 141.000
47.54000 167.000
47.56000 148.000
47.58000 157.000
47.60000 113.000
47.62000 131.000
47.64000 146.000
47.66000 122.000
47.68000 153.000
47.70000 157.000
47.72000 131.000
47.74000 136.000
47.76000 145.000
47.78000 119.000
47.80000 164.000
47.82000 147.000
47.84000 137.000
47.86000 126.000
47.88000 150.000
47.90000 148.000
47.92000 162.000
47.94000 167.000
47.96000 162.000
47.98000 169.000
48.00000 179.000
48.02000 178.000
48.04000 144.000
48.06000 187.000
48.08000 152.000
48.10000 184.000
48.12000 148.000
48.14000 158.000
48.16000 144.000
48.18000 151.000
48.20000 132.000
48.22000 161.000
48.24000 138.000
48.26000 119.000
48.28000 128.000
48.30000 173.000
48.32000 137.000
48.34000 141.000
48.36000 133.000
48.38000 128.000
48.40000 143.000
48.42000 140.000
48.44000 124.000
48.46000 141.000
48.48000 133.000
48.50000 126.000
48.52000 141.000
48.54000 147.000
48.56000 132.000
48.58000 147.000
48.60000 132.000
48.62000 150.000
48.64000 144.000
48.66000 150.000
48.68000 128.000
48.70000 147.000
48.72000 115.000
48.74000 119.000
48.76000 123.000
48.78000 135.000
48.80000 140.000
48.82000 138.000
48.84000 134.000
48.86000 118.000
48.88000 140.000
48.90000 144.000
48.92000 117.000
48.94000 130.000
48.96000 140.000
48.98000 118.000
49.00000 136.000
49.02000 128.000
49.04000 124.000
49.06000 146.000
49.08000 126.000
49.10000 146.000
49.12000 165.000
49.14000 141.000
49.16000 153.000
49.18000 110.000
49.20000 168.000
49.22000 158.000
49.24000 145.000
49.26000 144.000
49.28000 143.000
49.30000 143.000
49.32000 128.000
49.34000 142.000
49.36000 186.000
49.38000 120.000
49.40000 168.000
49.42000 157.000
49.44000 112.000
49.46000 132.000
49.48000 161.000
49.50000 143.000
49.52000 128.000
49.54000 160.000
49.56000 123.000
49.58000 144.000
49.60000 145.000
49.62000 155.000
49.64000 135.000
49.66000 130.000
49.68000 154.000
49.70000 147.000
49.72000 153.000
49.74000 146.000
49.76000 129.000
49.78000 135.000
49.80000 115.000
49.82000 127.000
49.84000 137.000
49.86000 149.000
49.88000 163.000
49.90000 149.000
49.92000 140.000
49.94000 162.000
49.96000 147.000
49.98000 155.000
50.00000 180.000
50.02000 167.000
50.04000 174.000
50.06000 188.000
50.08000 199.000
50.10000 218.000
50.12000 246.000
50.14000 278.000
50.16000 308.000
50.18000 316.000
50.20000 367.000
50.22000 467.000
50.24000 504.000
50.26000 572.000
50.28000 566.000
50.30000 602.000
50.32000 520.000
50.34000 525.000
50.36000 507.000
50.38000 491.000
50.40000 456.000
50.42000 434.000
50.44000 383.000
50.46000 382.000
50.48000 345.000
50.50000 261.000
50.52000 248.000
50.54000 223.000
50.56000 213.000
50.58000 192.000
50.60000 183.000
50.62000 179.000
50.64000 161.000
50.66000 162.000
50.68000 146.000
50.70000 144.000
50.72000 145.000
50.74000 129.000
50.76000 131.000
50.78000 137.000
50.80000 157.000
50.82000 116.000
50.84000 141.000
50.86000 152.000
50.88000 161.000
50.90000 147.000
50.92000 139.000
50.94000 138.000
50.96000 140.000
50.98000 132.000
51.00000 145.000
51.02000 160.000
51.04000 151.000
51.06000 133.000
51.08000 146.000
51.10000 147.000
51.12000 136.000
51.14000 131.000
51.16000 133.000
51.18000 120.000
51.20000 119.000
51.22000 139.000
51.24000 120.000
51.26000 129.000
51.28000 117.000
51.30000 120.000
51.32000 143.000
51.34000 139.000
51.36000 132.000
51.38000 141.000
51.40000 139.000
51.42000 127.000
51.44000 134.000
51.46000 136.000
51.48000 140.000
51.50000 117.000
51.52000 121.000
51.54000 145.000
51.56000 148.000
51.58000 138.000
51.60000 136.000
51.62000 123.000
51.64000 136.000
51.66000 115.000
51.68000 139.000
51.70000 143.000
51.72000 120.000
51.74000 140.000
51.76000 148.000
51.78000 120.000
51.80000 125.000
51.82000 117.000
51.84000 121.000
51.86000 168.000
51.88000 130.000
51.90000 139.000
51.92000 122.000
51.94000 132.000
51.96000 128.000
51.98000 129.000
52.00000 143.000
52.02000 151.000
52.04000 131.000
52.06000 163.000
52.08000 163.000
52.10000 135.000
52.12000 132.000
52.14000 158.000
52.16000 170.000
52.18000 170.000
52.20000 152.000
52.22000 171.000
52.24000 184.000
52.26000 196.000
52.28000 189.000
52.30000 186.000
52.32000 210.000
52.34000 200.000
52.36000 225.000
52.38000 294.000
52.40000 295.000
52.42000 303.000
52.44000 359.000
52.46000 409.000
52.48000 391.000
52.50000 427.000
52.52000 401.000
52.54000 421.000
52.56000 358.000
52.58000 351.000
52.60000 337.000
52.62000 343.000
52.64000 314.000
52.66000 292.000
52.68000 269.000
52.70000 202.000
52.72000 219.000
52.74000 206.000
52.76000 178.000
52.78000 183.000
52.80000 159.000
52.82000 167.000
52.84000 150.000
52.86000 153.000
52.88000 141.000
52.90000 132.000
52.92000 151.000
52.94000 113.000
52.96000 140.000
52.98000 117.000
53.00000 143.000
53.02000 124.000
53.04000 120.000
53.06000 122.000
53.08000 141.000
53.10000 121.000
53.12000 129.000
53.14000 140.000
53.16000 105.000
53.18000 124.000
53.20000 113.000
53.22000 137.000
53.24000 125.000
53.26000 147.000
53.28000 105.000
53.30000 124.000
53.32000 119.000
53.34000 133.000
53.36000 144.000
53.38000 105.000
53.40000 131.000
53.42000 109.000
53.44000 122.000
53.46000 124.000
53.48000 118.000
53.50000 117.000
53.52000 111.000
53.54000 105.000
53.56000 112.000
53.58000 131.000
53.60000 130.000
53.62000 123.000
53.64000 112.000
53.66000 123.000
53.68000 123.000
53.70000 113.000
53.72000 131.000
53.74000 124.000
53.76000 112.000
53.78000 132.000
53.80000 112.000
53.82000 127.000
53.84000 109.000
53.86000 102.000
53.88000 130.000
53.90000 118.000
53.92000 105.000
53.94000 123.000
53.96000 119.000
53.98000 128.000
54.00000 109.000
54.02000 119.000
54.04000 122.000
54.06000 122.000
54.08000 123.000
54.10000 107.000
54.12000 119.000
54.14000 139.000
54.16000 115.000
54.18000 101.000
54.20000 115.000
54.22000 119.000
54.24000 112.000
54.26000 117.000
54.28000 109.000
54.30000 120.000
54.32000 123.000
54.34000 121.000
54.36000 138.000
54.38000 118.000
54.40000 117.000
54.42000 148.000
54.44000 144.000
54.46000 144.000
54.48000 134.000
54.50000 172.000
54.52000 170.000
54.54000 162.000
54.56000 178.000
54.58000 187.000
54.60000 194.000
54.62000 235.000
54.64000 226.000
54.66000 240.000
54.68000 239.000
54.70000 216.000
54.72000 206.000
54.74000 199.000
54.76000 181.000
54.78000 172.000
54.80000 150.000
54.82000 174.000
54.84000 165.000
54.86000 139.000
54.88000 162.000
54.90000 133.000
54.92000 150.000
54.94000 143.000
54.96000 132.000
54.98000 123.000
55.00000 119.000
55.02000 125.000
55.04000 109.000
55.06000 110.000
55.08000 101.000
55.10000 120.000
55.12000 103.000
55.14000 118.000
55.16000 105.000
55.18000 133.000
55.20000 117.000
55.22000 120.000
55.24000 126.000
55.26000 98.000
55.28000 112.000
55.30000 101.000
55.32000 128.000
55.34000 116.000
55.36000 108.000
55.38000 98.000
55.40000 113.000
55.42000 117.000
55.44000 104.000
55.46000 105.000
55.48000 111.000
55.50000 113.000
55.52000 102.000
55.54000 109.000
55.56000 86.000
55.58000 125.000
55.60000 103.000
55.62000 118.000
55.64000 93.000
55.66000 115.000
55.68000 115.000
55.70000 127.000
55.72000 120.000
55.74000 94.000
55.76000 107.000
55.78000 114.000
55.80000 107.000
55.82000 103.000
55.84000 112.000
55.86000 84.000
55.88000 105.000
55.90000 98.000
55.92000 114.000
55.94000 118.000
55.96000 109.000
55.98000 123.000
56.00000 112.000
56.02000 89.000
56.04000 130.000
56.06000 123.000
56.08000 103.000
56.10000 111.000
56.12000 102.000
56.14000 117.000
56.16000 100.000
56.18000 112.000
56.20000 107.000
56.22000 112.000
56.24000 105.000
56.26000 112.000
56.28000 123.000
56.30000 111.000
56.32000 100.000
56.34000 119.000
56.36000 115.000
56.38000 118.000
56.40000 113.000
56.42000 134.000
56.44000 128.000
56.46000 106.000
56.48000 120.000
56.50000 132.000
56.52000 127.000
56.54000 129.000
56.56000 121.000
56.58000 127.000
56.60000 128.000
56.62000 132.000
56.64000 120.000
56.66000 123.000
56.68000 114.000
56.70000 109.000
56.72000 118.000
56.74000 125.000
56.76000 108.000
56.78000 103.000
56.80000 123.000
56.82000 113.000
56.84000 88.000
56.86000 123.000
56.88000 87.000
56.90000 98.000
56.92000 94.000
56.94000 109.000
56.96000 99.000
56.98000 106.000
57.00000 112.000
57.02000 112.000
57.04000 115.000
57.06000 105.000
57.08000 114.000
57.10000 86.000
57.12000 109.000
57.14000 92.000
57.16000 119.000
57.18000 100.000
57.20000 90.000
57.22000 100.000
57.24000 102.000
57.26000 105.000
57.28000 108.000
57.30000 117.000
57.32000 104.000
57.34000 93.000
57.36000 103.000
57.38000 99.000
57.40000 108.000
57.42000 96.000
57.44000 103.000
57.46000 98.000
57.48000 96.000
57.50000 109.000
57.52000 98.000
57.54000 102.000
57.56000 106.000
57.58000 90.000
57.60000 118.000
57.62000 101.000
57.64000 118.000
57.66000 87.000
57.68000 98.000
57.70000 113.000
57.72000 99.000
57.74000 135.000
57.76000 114.000
57.78000 106.000
57.80000 109.000
57.82000 106.000
57.84000 110.000
57.86000 109.000
57.88000 88.000
57.90000 97.000
57.92000 114.000
57.94000 126.000
57.96000 119.000
57.98000 116.000
58.00000 105.000
58.02000 108.000
58.04000 101.000
58.06000 103.000
58.08000 107.000
58.10000 116.000
58.12000 116.000
58.14000 109.000
58.16000 105.000
58.18000 103.000
58.20000 95.000
58.22000 121.000
58.24000 116.000
58.26000 106.000
58.28000 110.000
58.30000 117.000
58.32000 100.000
58.34000 108.000
58.36000 113.000
58.38000 104.000
58.40000 111.000
58.42000 131.000
58.44000 127.000
58.46000 125.000
58.48000 117.000
58.50000 135.000
58.52000 140.000
58.54000 126.000
58.56000 119.000
58.58000 155.000
58.60000 129.000
58.62000 132.000
58.64000 146.000
58.66000 180.000
58.68000 190.000
58.70000 195.000
58.72000 212.000
58.74000 234.000
58.76000 220.000
58.78000 243.000
58.80000 236.000
58.82000 245.000
58.84000 216.000
58.86000 207.000
58.88000 200.000
58.90000 212.000
58.92000 180.000
58.94000 196.000
58.96000 188.000
58.98000 158.000
59.00000 150.000
59.02000 134.000
59.04000 134.000
59.06000 114.000
59.08000 118.000
59.10000 130.000
59.12000 113.000
59.14000 121.000
59.16000 108.000
59.18000 100.000
59.20000 97.000
59.22000 101.000
59.24000 103.000
59.26000 100.000
59.28000 108.000
59.30000 96.000
59.32000 103.000
59.34000 110.000
59.36000 101.000
59.38000 116.000
59.40000 121.000
59.42000 118.000
59.44000 79.000
59.46000 104.000
59.48000 82.000
59.50000 101.000
59.52000 101.000
59.54000 98.000
59.56000 104.000
59.58000 96.000
59.60000 90.000
59.62000 109.000
59.64000 87.000
59.66000 111.000
59.68000 92.000
59.70000 98.000
59.72000 106.000
59.74000 88.000
59.76000 89.000
59.78000 87.000
59.80000 103.000
59.82000 99.000
59.84000 105.000
59.86000 123.000
59.88000 109.000
59.90000 111.000
59.92000 110.000
59.94000 95.000
59.96000 107.000
