5.00000 825.000
5.02000 821.000
5.04000 822.000
5.06000 790.000
5.08000 811.000
5.10000 809.000
5.12000 807.000
5.14000 814.000
5.16000 779.000
5.18000 819.000
5.20000 756.000
5.22000 732.000
5.24000 774.000
5.26000 741.000
5.28000 771.000
5.30000 769.000
5.32000 743.000
5.34000 780.000
5.36000 746.000
5.38000 787.000
5.40000 737.000
5.42000 747.000
5.44000 720.000
5.46000 718.000
5.48000 773.000
5.50000 723.000
5.52000 724.000
5.54000 736.000
5.56000 706.000
5.58000 714.000
5.60000 694.000
5.62000 726.000
5.64000 735.000
5.66000 679.000
5.68000 721.000
5.70000 705.000
5.72000 697.000
5.74000 671.000
5.76000 720.000
5.78000 679.000
5.80000 698.000
5.82000 692.000
5.84000 667.000
5.86000 704.000
5.88000 707.000
5.90000 686.000
5.92000 704.000
5.94000 715.000
5.96000 690.000
5.98000 644.000
6.00000 659.000
6.02000 706.000
6.04000 686.000
6.06000 719.000
6.08000 644.000
6.10000 672.000
6.12000 609.000
6.14000 681.000
6.16000 651.000
6.18000 640.000
6.20000 655.000
6.22000 691.000
6.24000 624.000
6.26000 649.000
6.28000 677.000
6.30000 600.000
6.32000 666.000
6.34000 601.000
6.36000 654.000
6.38000 619.000
6.40000 623.000
6.42000 587.000
6.44000 625.000
6.46000 609.000
6.48000 591.000
6.50000 596.000
6.52000 644.000
6.54000 588.000
6.56000 609.000
6.58000 626.000
6.60000 588.000
6.62000 618.000
6.64000 601.000
6.66000 616.000
6.68000 606.000
6.70000 618.000
6.72000 597.000
6.74000 598.000
6.76000 578.000
6.78000 558.000
6.80000 646.000
6.82000 587.000
6.84000 569.000
6.86000 538.000
6.88000 588.000
6.90000 608.000
6.92000 578.000
6.94000 595.000
6.96000 524.000
6.98000 584.000
7.00000 594.000
7.02000 545.000
7.04000 591.000
7.06000 548.000
7.08000 588.000
7.10000 586.000
7.12000 551.000
7.14000 600.000
7.16000 558.000
7.18000 541.000
7.20000 564.000
7.22000 542.000
7.24000 564.000
7.26000 558.000
7.28000 573.000
7.30000 544.000
7.32000 571.000
7.34000 557.000
7.36000 534.000
7.38000 531.000
7.40000 512.000
7.42000 559.000
7.44000 488.000
7.46000 525.000
7.48000 506.000
7.50000 531.000
7.52000 495.000
7.54000 502.000
7.56000 547.000
7.58000 552.000
7.60000 521.000
7.62000 525.000
7.64000 493.000
7.66000 478.000
7.68000 521.000
7.70000 532.000
7.72000 490.000
7.74000 507.000
7.76000 500.000
7.78000 475.000
7.80000 535.000
7.82000 503.000
7.84000 512.000
7.86000 513.000
7.88000 507.000
7.90000 513.000
7.92000 500.000
7.94000 514.000
7.96000 457.000
7.98000 484.000
8.00000 454.000
8.02000 472.000
8.04000 472.000
8.06000 521.000
8.08000 487.000
8.10000 472.000
8.12000 534.000
8.14000 462.000
8.16000 492.000
8.18000 463.000
8.20000 494.000
8.22000 518.000
8.24000 467.000
8.26000 467.000
8.28000 470.000
8.30000 492.000
8.32000 487.000
8.34000 479.000
8.36000 442.000
8.38000 468.000
8.40000 497.000
8.42000 498.000
8.44000 479.000
8.46000 438.000
8.48000 459.000
8.50000 489.000
8.52000 495.000
8.54000 463.000
8.56000 504.000
8.58000 439.000
8.60000 484.000
8.62000 452.000
8.64000 480.000
8.66000 449.000
8.68000 443.000
8.70000 485.000
8.72000 462.000
8.74000 463.000
8.76000 475.000
8.78000 428.000
8.80000 431.000
8.82000 467.000
8.84000 460.000
8.86000 471.000
8.88000 435.000
8.90000 421.000
8.92000 429.000
8.94000 417.000
8.96000 416.000
8.98000 461.000
9.00000 451.000
9.02000 448.000
9.04000 451.000
9.06000 397.000
9.08000 408.000
9.10000 434.000
9.12000 409.000
9.14000 425.000
9.16000 424.000
9.18000 459.000
9.20000 416.000
9.22000 414.000
9.24000 448.000
9.26000 436.000
9.28000 420.000
9.30000 373.000
9.32000 398.000
9.34000 420.000
9.36000 425.000
9.38000 429.000
9.40000 361.000
9.42000 409.000
9.44000 369.000
9.46000 401.000
9.48000 398.000
9.50000 413.000
9.52000 432.000
9.54000 399.000
9.56000 399.000
9.58000 385.000
9.60000 440.000
9.62000 405.000
9.64000 396.000
9.66000 416.000
9.68000 416.000
9.70000 423.000
9.72000 407.000
9.74000 384.000
9.76000 402.000
9.78000 404.000
9.80000 381.000
9.82000 377.000
9.84000 407.000
9.86000 428.000
9.88000 397.000
9.90000 395.000
9.92000 386.000
9.94000 401.000
9.96000 422.000
9.98000 409.000
10.00000 366.000
10.02000 464.000
10.04000 431.000
10.06000 382.000
10.08000 427.000
10.10000 423.000
10.12000 417.000
10.14000 410.000
10.16000 418.000
10.18000 394.000
10.20000 445.000
10.22000 410.000
10.24000 394.000
10.26000 377.000
10.28000 385.000
10.30000 399.000
10.32000 436.000
10.34000 404.000
10.36000 381.000
10.38000 415.000
10.40000 364.000
10.42000 383.000
10.44000 383.000
10.46000 361.000
10.48000 357.000
10.50000 374.000
10.52000 367.000
10.54000 393.000
10.56000 343.000
10.58000 331.000
10.60000 357.000
10.62000 354.000
10.64000 371.000
10.66000 370.000
10.68000 363.000
10.70000 371.000
10.72000 338.000
10.74000 411.000
10.76000 372.000
10.78000 368.000
10.80000 380.000
10.82000 363.000
10.84000 361.000
10.86000 342.000
10.88000 353.000
10.90000 373.000
10.92000 368.000
10.94000 355.000
10.96000 344.000
10.98000 346.000
11.00000 339.000
11.02000 324.000
11.04000 339.000
11.06000 355.000
11.08000 336.000
11.10000 381.000
11.12000 337.000
11.14000 364.000
11.16000 361.000
11.18000 351.000
11.20000 376.000
11.22000 315.000
11.24000 350.000
11.26000 316.000
11.28000 368.000
11.30000 346.000
11.32000 362.000
11.34000 357.000
11.36000 357.000
11.38000 376.000
11.40000 372.000
11.42000 377.000
11.44000 378.000
11.46000 397.000
11.48000 389.000
11.50000 381.000
11.52000 406.000
11.54000 376.000
11.56000 382.000
11.58000 360.000
11.60000 377.000
11.62000 419.000
11.64000 381.000
11.66000 389.000
11.68000 362.000
11.70000 362.000
11.72000 366.000
11.74000 371.000
11.76000 401.000
11.78000 353.000
11.80000 394.000
11.82000 381.000
11.84000 367.000
11.86000 379.000
11.88000 383.000
11.90000 321.000
11.92000 403.000
11.94000 377.000
11.96000 357.000
11.98000 372.000
12.00000 389.000
12.02000 381.000
12.04000 421.000
12.06000 400.000
12.08000 448.000
12.10000 465.000
12.12000 484.000
12.14000 431.000
12.16000 446.000
12.18000 452.000
12.20000 469.000
12.22000 444.000
12.24000 538.000
12.26000 526.000
12.28000 529.000
12.30000 548.000
12.32000 574.000
12.34000 579.000
12.36000 607.000
12.38000 638.000
12.40000 666.000
12.42000 769.000
12.44000 804.000
12.46000 811.000
12.48000 902.000
12.50000 947.000
12.52000 1060.000
12.54000 1154.000
12.56000 1344.000
12.58000 1409.000
12.60000 1509.000
12.62000 1632.000
12.64000 1728.000
12.66000 1796.000
12.68000 1832.000
12.70000 1755.000
12.72000 1551.000
12.74000 1497.000
12.76000 1229.000
12.78000 1098.000
12.80000 920.000
12.82000 791.000
12.84000 715.000
12.86000 642.000
12.88000 558.000
12.90000 488.000
12.92000 474.000
12.94000 418.000
12.96000 405.000
12.98000 384.000
13.00000 394.000
13.02000 385.000
13.04000 403.000
13.06000 409.000
13.08000 375.000
13.10000 356.000
13.12000 398.000
13.14000 367.000
13.16000 367.000
13.18000 387.000
13.20000 394.000
13.22000 421.000
13.24000 382.000
13.26000 429.000
13.28000 408.000
13.30000 429.000
13.32000 443.000
13.34000 506.000
13.36000 496.000
13.38000 522.000
13.40000 560.000
13.42000 556.000
13.44000 543.000
13.46000 595.000
13.48000 607.000
13.50000 661.000
13.52000 643.000
13.54000 605.000
13.56000 585.000
13.58000 655.000
13.60000 638.000
13.62000 631.000
13.64000 627.000
13.66000 671.000
13.68000 754.000
13.70000 770.000
13.72000 807.000
13.74000 842.000
13.76000 894.000
13.78000 983.000
13.80000 1038.000
13.82000 1045.000
13.84000 1171.000
13.86000 1297.000
13.88000 1402.000
13.90000 1394.000
13.92000 1540.000
13.94000 1739.000
13.96000 1945.000
13.98000 2107.000
14.00000 2322.000
14.02000 2500.000
14.04000 2740.000
14.06000 3043.000
14.08000 3237.000
14.10000 3086.000
14.12000 2847.000
14.14000 2440.000
14.16000 1980.000
14.18000 1695.000
14.20000 1277.000
14.22000 1063.000
14.24000 870.000
14.26000 776.000
14.28000 624.000
14.30000 540.000
14.32000 493.000
14.34000 411.000
14.36000 424.000
14.38000 426.000
14.40000 339.000
14.42000 345.000
14.44000 345.000
14.46000 347.000
14.48000 296.000
14.50000 311.000
14.52000 306.000
14.54000 276.000
14.56000 309.000
14.58000 264.000
14.60000 278.000
14.62000 299.000
14.64000 295.000
14.66000 263.000
14.68000 285.000
14.70000 274.000
14.72000 256.000
14.74000 282.000
14.76000 281.000
14.78000 259.000
14.80000 267.000
14.82000 265.000
14.84000 248.000
14.86000 246.000
14.88000 240.000
14.90000 247.000
14.92000 241.000
14.94000 248.000
14.96000 263.000
14.98000 240.000
15.00000 260.000
15.02000 245.000
15.04000 238.000
15.06000 260.000
15.08000 251.000
15.10000 246.000
15.12000 268.000
15.14000 237.000
15.16000 237.000
15.18000 235.000
15.20000 240.000
15.22000 254.000
15.24000 229.000
15.26000 242.000
15.28000 260.000
15.30000 268.000
15.32000 246.000
15.34000 233.000
15.36000 212.000
15.38000 240.000
15.40000 241.000
15.42000 252.000
15.44000 264.000
15.46000 229.000
15.48000 240.000
15.50000 222.000
15.52000 237.000
15.54000 248.000
15.56000 248.000
15.58000 233.000
15.60000 245.000
15.62000 229.000
15.64000 258.000
15.66000 226.000
15.68000 217.000
15.70000 252.000
15.72000 243.000
15.74000 224.000
15.76000 263.000
15.78000 227.000
15.80000 253.000
15.82000 222.000
15.84000 209.000
15.86000 246.000
15.88000 224.000
15.90000 253.000
15.92000 236.000
15.94000 271.000
15.96000 235.000
15.98000 216.000
16.00000 208.000
16.02000 245.000
16.04000 204.000
16.06000 222.000
16.08000 213.000
16.10000 248.000
16.12000 242.000
16.14000 242.000
16.16000 232.000
16.18000 249.000
16.20000 216.000
16.22000 205.000
16.24000 233.000
16.26000 213.000
16.28000 249.000
16.30000 231.000
16.32000 217.000
16.34000 227.000
16.36000 210.000
16.38000 250.000
16.40000 191.000
16.42000 234.000
16.44000 233.000
16.46000 252.000
16.48000 219.000
16.50000 207.000
16.52000 203.000
16.54000 250.000
16.56000 222.000
16.58000 213.000
16.60000 220.000
16.62000 183.000
16.64000 209.000
16.66000 228.000
16.68000 259.000
16.70000 207.000
16.72000 211.000
16.74000 225.000
16.76000 241.000
16.78000 196.000
16.80000 244.000
16.82000 211.000
16.84000 247.000
16.86000 225.000
16.88000 206.000
16.90000 222.000
16.92000 209.000
16.94000 199.000
16.96000 218.000
16.98000 218.000
17.00000 197.000
17.02000 195.000
17.04000 213.000
17.06000 199.000
17.08000 204.000
17.10000 221.000
17.12000 199.000
17.14000 206.000
17.16000 220.000
17.18000 194.000
17.20000 208.000
17.22000 229.000
17.24000 203.000
17.26000 208.000
17.28000 205.000
17.30000 229.000
17.32000 218.000
17.34000 211.000
17.36000 231.000
17.38000 237.000
17.40000 199.000
17.42000 203.000
17.44000 185.000
17.46000 223.000
17.48000 227.000
17.50000 215.000
17.52000 211.000
17.54000 226.000
17.56000 205.000
17.58000 231.000
17.60000 235.000
17.62000 210.000
17.64000 207.000
17.66000 221.000
17.68000 179.000
17.70000 219.000
17.72000 202.000
17.74000 228.000
17.76000 223.000
17.78000 216.000
17.80000 233.000
17.82000 219.000
17.84000 203.000
17.86000 221.000
17.88000 200.000
17.90000 196.000
17.92000 210.000
17.94000 235.000
17.96000 243.000
17.98000 207.000
18.00000 210.000
18.02000 229.000
18.04000 232.000
18.06000 211.000
18.08000 202.000
18.10000 202.000
18.12000 195.000
18.14000 218.000
18.16000 224.000
18.18000 205.000
18.20000 185.000
18.22000 213.000
18.24000 218.000
18.26000 198.000
18.28000 222.000
18.30000 227.000
18.32000 210.000
18.34000 190.000
18.36000 204.000
18.38000 219.000
18.40000 207.000
18.42000 220.000
18.44000 200.000
18.46000 205.000
18.48000 193.000
18.50000 189.000
18.52000 223.000
18.54000 195.000
18.56000 202.000
18.58000 190.000
18.60000 215.000
18.62000 228.000
18.64000 223.000
18.66000 230.000
18.68000 212.000
18.70000 223.000
18.72000 217.000
18.74000 206.000
18.76000 219.000
18.78000 190.000
18.80000 222.000
18.82000 198.000
18.84000 193.000
18.86000 219.000
18.88000 218.000
18.90000 207.000
18.92000 217.000
18.94000 207.000
18.96000 204.000
18.98000 219.000
19.00000 241.000
19.02000 233.000
19.04000 204.000
19.06000 242.000
19.08000 233.000
19.10000 234.000
19.12000 204.000
19.14000 231.000
19.16000 205.000
19.18000 218.000
19.20000 247.000
19.22000 232.000
19.24000 202.000
19.26000 211.000
19.28000 212.000
19.30000 225.000
19.32000 218.000
19.34000 230.000
19.36000 215.000
19.38000 225.000
19.40000 209.000
19.42000 252.000
19.44000 231.000
19.46000 250.000
19.48000 222.000
19.50000 234.000
19.52000 255.000
19.54000 249.000
19.56000 256.000
19.58000 278.000
19.60000 253.000
19.62000 292.000
19.64000 282.000
19.66000 315.000
19.68000 313.000
19.70000 339.000
19.72000 385.000
19.74000 371.000
19.76000 376.000
19.78000 429.000
19.80000 508.000
19.82000 492.000
19.84000 552.000
19.86000 617.000
19.88000 683.000
19.90000 829.000
19.92000 843.000
19.94000 918.000
19.96000 953.000
19.98000 874.000
20.00000 853.000
20.02000 798.000
20.04000 631.000
20.06000 570.000
20.08000 451.000
20.10000 412.000
20.12000 343.000
20.14000 306.000
20.16000 273.000
20.18000 251.000
20.20000 286.000
20.22000 232.000
20.24000 244.000
20.26000 215.000
20.28000 243.000
20.30000 259.000
20.32000 221.000
20.34000 224.000
20.36000 229.000
20.38000 249.000
20.40000 188.000
20.42000 203.000
20.44000 201.000
20.46000 214.000
20.48000 216.000
20.50000 205.000
20.52000 233.000
20.54000 189.000
20.56000 207.000
20.58000 201.000
20.60000 205.000
20.62000 207.000
20.64000 206.000
20.66000 218.000
20.68000 215.000
20.70000 219.000
20.72000 240.000
20.74000 199.000
20.76000 199.000
20.78000 200.000
20.80000 205.000
20.82000 219.000
20.84000 225.000
20.86000 185.000
20.88000 201.000
20.90000 230.000
20.92000 181.000
20.94000 217.000
20.96000 198.000
20.98000 206.000
21.00000 213.000
21.02000 214.000
21.04000 240.000
21.06000 204.000
21.08000 225.000
21.10000 205.000
21.12000 224.000
21.14000 212.000
21.16000 211.000
21.18000 213.000
21.20000 189.000
21.22000 205.000
21.24000 225.000
21.26000 199.000
21.28000 230.000
21.30000 219.000
21.32000 180.000
21.34000 232.000
21.36000 222.000
21.38000 197.000
21.40000 204.000
21.42000 207.000
21.44000 192.000
21.46000 204.000
21.48000 201.000
21.50000 199.000
21.52000 208.000
21.54000 217.000
21.56000 218.000
21.58000 220.000
21.60000 201.000
21.62000 204.000
21.64000 235.000
21.66000 218.000
21.68000 218.000
21.70000 213.000
21.72000 240.000
21.74000 218.000
21.76000 182.000
21.78000 230.000
21.80000 215.000
21.82000 211.000
21.84000 245.000
21.86000 226.000
21.88000 208.000
21.90000 204.000
21.92000 223.000
21.94000 233.000
21.96000 204.000
21.98000 203.000
22.00000 228.000
22.02000 217.000
22.04000 213.000
22.06000 218.000
22.08000 229.000
22.10000 205.000
22.12000 226.000
22.14000 223.000
22.16000 234.000
22.18000 245.000
22.20000 230.000
22.22000 226.000
22.24000 199.000
22.26000 229.000
22.28000 231.000
22.30000 224.000
22.32000 220.000
22.34000 234.000
22.36000 234.000
22.38000 219.000
22.40000 236.000
22.42000 203.000
22.44000 217.000
22.46000 189.000
22.48000 226.000
22.50000 223.000
22.52000 243.000
22.54000 219.000
22.56000 226.000
22.58000 232.000
22.60000 198.000
22.62000 207.000
22.64000 198.000
22.66000 229.000
22.68000 242.000
22.70000 209.000
22.72000 240.000
22.74000 206.000
22.76000 235.000
22.78000 218.000
22.80000 218.000
22.82000 226.000
22.84000 255.000
22.86000 217.000
22.88000 227.000
22.90000 211.000
22.92000 235.000
22.94000 242.000
22.96000 261.000
22.98000 263.000
23.00000 251.000
23.02000 221.000
23.04000 234.000
23.06000 230.000
23.08000 260.000
23.10000 241.000
23.12000 254.000
23.14000 219.000
23.16000 237.000
23.18000 241.000
23.20000 272.000
23.22000 271.000
23.24000 279.000
23.26000 325.000
23.28000 255.000
23.30000 327.000
23.32000 275.000
23.34000 346.000
23.36000 306.000
23.38000 297.000
23.40000 307.000
23.42000 292.000
23.44000 296.000
23.46000 312.000
23.48000 277.000
23.50000 247.000
23.52000 247.000
23.54000 252.000
23.56000 205.000
23.58000 244.000
23.60000 218.000
23.62000 241.000
23.64000 248.000
23.66000 245.000
23.68000 207.000
23.70000 219.000
23.72000 243.000
23.74000 203.000
23.76000 230.000
23.78000 227.000
23.80000 222.000
23.82000 225.000
23.84000 246.000
23.86000 226.000
23.88000 226.000
23.90000 227.000
23.92000 187.000
23.94000 196.000
23.96000 241.000
23.98000 232.000
24.00000 249.000
24.02000 258.000
24.04000 242.000
24.06000 251.000
24.08000 271.000
24.10000 272.000
24.12000 274.000
24.14000 319.000
24.16000 295.000
24.18000 314.000
24.20000 321.000
24.22000 348.000
24.24000 365.000
24.26000 419.000
24.28000 421.000
24.30000 459.000
24.32000 489.000
24.34000 495.000
24.36000 599.000
24.38000 668.000
24.40000 717.000
24.42000 804.000
24.44000 915.000
24.46000 1091.000
24.48000 1127.000
24.50000 1141.000
24.52000 1189.000
24.54000 1164.000
24.56000 1038.000
24.58000 934.000
24.60000 790.000
24.62000 673.000
24.64000 566.000
24.66000 487.000
24.68000 466.000
24.70000 402.000
24.72000 373.000
24.74000 326.000
24.76000 308.000
24.78000 299.000
24.80000 255.000
24.82000 250.000
24.84000 252.000
24.86000 265.000
24.88000 264.000
24.90000 276.000
24.92000 234.000
24.94000 253.000
24.96000 227.000
24.98000 219.000
25.00000 243.000
25.02000 227.000
25.04000 202.000
25.06000 258.000
25.08000 255.000
25.10000 224.000
25.12000 227.000
25.14000 236.000
25.16000 241.000
25.18000 256.000
25.20000 272.000
25.22000 253.000
25.24000 247.000
25.26000 237.000
25.28000 225.000
25.30000 239.000
25.32000 265.000
25.34000 244.000
25.36000 240.000
25.38000 252.000
25.40000 272.000
25.42000 263.000
25.44000 254.000
25.46000 274.000
25.48000 271.000
25.50000 265.000
25.52000 258.000
25.54000 263.000
25.56000 258.000
25.58000 259.000
25.60000 283.000
25.62000 249.000
25.64000 256.000
25.66000 241.000
25.68000 237.000
25.70000 269.000
25.72000 268.000
25.74000 258.000
25.76000 239.000
25.78000 231.000
25.80000 251.000
25.82000 261.000
25.84000 249.000
25.86000 246.000
25.88000 251.000
25.90000 257.000
25.92000 236.000
25.94000 211.000
25.96000 239.000
25.98000 244.000
26.00000 240.000
26.02000 242.000
26.04000 253.000
26.06000 254.000
26.08000 263.000
26.10000 258.000
26.12000 229.000
26.14000 249.000
26.16000 250.000
26.18000 233.000
26.20000 245.000
26.22000 272.000
26.24000 246.000
26.26000 248.000
26.28000 234.000
26.30000 224.000
26.32000 211.000
26.34000 267.000
26.36000 226.000
26.38000 253.000
26.40000 232.000
26.42000 242.000
26.44000 231.000
26.46000 211.000
26.48000 236.000
26.50000 242.000
26.52000 225.000
26.54000 241.000
26.56000 235.000
26.58000 248.000
26.60000 248.000
26.62000 244.000
26.64000 267.000
26.66000 236.000
26.68000 240.000
26.70000 254.000
26.72000 235.000
26.74000 241.000
26.76000 277.000
26.78000 249.000
26.80000 251.000
26.82000 246.000
26.84000 255.000
26.86000 266.000
26.88000 260.000
26.90000 277.000
26.92000 255.000
26.94000 233.000
26.96000 277.000
26.98000 258.000
27.00000 273.000
27.02000 299.000
27.04000 300.000
27.06000 301.000
27.08000 312.000
27.10000 323.000
27.12000 335.000
27.14000 321.000
27.16000 333.000
27.18000 344.000
27.20000 319.000
27.22000 321.000
27.24000 322.000
27.26000 320.000
27.28000 312.000
27.30000 324.000
27.32000 317.000
27.34000 302.000
27.36000 303.000
27.38000 269.000
27.40000 264.000
27.42000 247.000
27.44000 272.000
27.46000 274.000
27.48000 255.000
27.50000 270.000
27.52000 248.000
27.54000 249.000
27.56000 254.000
27.58000 270.000
27.60000 276.000
27.62000 283.000
27.64000 294.000
27.66000 271.000
27.68000 311.000
27.70000 305.000
27.72000 260.000
27.74000 254.000
27.76000 264.000
27.78000 304.000
27.80000 311.000
27.82000 283.000
27.84000 359.000
27.86000 313.000
27.88000 339.000
27.90000 315.000
27.92000 341.000
27.94000 342.000
27.96000 409.000
27.98000 425.000
28.00000 433.000
28.02000 421.000
28.04000 508.000
28.06000 523.000
28.08000 610.000
28.10000 595.000
28.12000 677.000
28.14000 781.000
28.16000 855.000
28.18000 972.000
28.20000 1098.000
28.22000 1220.000
28.24000 1400.000
28.26000 1572.000
28.28000 1781.000
28.30000 2111.000
28.32000 2356.000
28.34000 2550.000
28.36000 2751.000
28.38000 2786.000
28.40000 2743.000
28.42000 2632.000
28.44000 2282.000
28.46000 1993.000
28.48000 1678.000
28.50000 1452.000
28.52000 1134.000
28.54000 934.000
28.56000 851.000
28.58000 679.000
28.60000 651.000
28.62000 526.000
28.64000 467.000
28.66000 438.000
28.68000 396.000
28.70000 371.000
28.72000 357.000
28.74000 328.000
28.76000 339.000
28.78000 314.000
28.80000 275.000
28.82000 286.000
28.84000 301.000
28.86000 264.000
28.88000 289.000
28.90000 277.000
28.92000 267.000
28.94000 272.000
28.96000 258.000
28.98000 267.000
29.00000 278.000
29.02000 269.000
29.04000 243.000
29.06000 247.000
29.08000 266.000
29.10000 251.000
29.12000 283.000
29.14000 245.000
29.16000 252.000
29.18000 246.000
29.20000 238.000
29.22000 235.000
29.24000 220.000
29.26000 234.000
29.28000 230.000
29.30000 244.000
29.32000 213.000
29.34000 266.000
29.36000 240.000
29.38000 236.000
29.40000 208.000
29.42000 247.000
29.44000 246.000
29.46000 202.000
29.48000 243.000
29.50000 221.000
29.52000 243.000
29.54000 203.000
29.56000 217.000
29.58000 233.000
29.60000 219.000
29.62000 229.000
29.64000 212.000
29.66000 195.000
29.68000 196.000
29.70000 233.000
29.72000 224.000
29.74000 234.000
29.76000 205.000
29.78000 253.000
29.80000 229.000
29.82000 202.000
29.84000 214.000
29.86000 212.000
29.88000 210.000
29.90000 230.000
29.92000 226.000
29.94000 230.000
29.96000 211.000
29.98000 222.000
30.00000 238.000
30.02000 210.000
30.04000 252.000
30.06000 238.000
30.08000 231.000
30.10000 235.000
30.12000 250.000
30.14000 225.000
30.16000 251.000
30.18000 227.000
30.20000 238.000
30.22000 230.000
30.24000 231.000
30.26000 203.000
30.28000 259.000
30.30000 258.000
30.32000 262.000
30.34000 238.000
30.36000 271.000
30.38000 260.000
30.40000 274.000
30.42000 265.000
30.44000 256.000
30.46000 301.000
30.48000 265.000
30.50000 214.000
30.52000 259.000
30.54000 246.000
30.56000 264.000
30.58000 284.000
30.60000 233.000
30.62000 231.000
30.64000 241.000
30.66000 216.000
30.68000 253.000
30.70000 254.000
30.72000 259.000
30.74000 252.000
30.76000 238.000
30.78000 243.000
30.80000 223.000
30.82000 256.000
30.84000 245.000
30.86000 269.000
30.88000 239.000
30.90000 232.000
30.92000 251.000
30.94000 252.000
30.96000 253.000
30.98000 266.000
31.00000 277.000
31.02000 270.000
31.04000 269.000
31.06000 242.000
31.08000 272.000
31.10000 260.000
31.12000 273.000
31.14000 277.000
31.16000 278.000
31.18000 291.000
31.20000 307.000
31.22000 282.000
31.24000 256.000
31.26000 303.000
31.28000 319.000
31.30000 304.000
31.32000 295.000
31.34000 311.000
31.36000 343.000
31.38000 362.000
31.40000 377.000
31.42000 396.000
31.44000 402.000
31.46000 428.000
31.48000 464.000
31.50000 515.000
31.52000 581.000
31.54000 647.000
31.56000 742.000
31.58000 810.000
31.60000 911.000
31.62000 1014.000
31.64000 1183.000
31.66000 1463.000
31.68000 1708.000
31.70000 2016.000
31.72000 2371.000
31.74000 2582.000
31.76000 2950.000
31.78000 3341.000
31.80000 3469.000
31.82000 3395.000
31.84000 3247.000
31.86000 2919.000
31.88000 2480.000
31.90000 2117.000
31.92000 1927.000
31.94000 1467.000
31.96000 1158.000
31.98000 979.000
32.00000 814.000
32.02000 660.000
32.04000 579.000
32.06000 435.000
32.08000 434.000
32.10000 388.000
32.12000 339.000
32.14000 351.000
32.16000 321.000
32.18000 296.000
32.20000 280.000
32.22000 297.000
32.24000 241.000
32.26000 262.000
32.28000 235.000
32.30000 242.000
32.32000 250.000
32.34000 246.000
32.36000 243.000
32.38000 225.000
32.40000 245.000
32.42000 215.000
32.44000 211.000
32.46000 222.000
32.48000 211.000
32.50000 239.000
32.52000 215.000
32.54000 201.000
32.56000 209.000
32.58000 177.000
32.60000 215.000
32.62000 192.000
32.64000 206.000
32.66000 203.000
32.68000 192.000
32.70000 192.000
32.72000 211.000
32.74000 208.000
32.76000 205.000
32.78000 178.000
32.80000 215.000
32.82000 187.000
32.84000 196.000
32.86000 184.000
32.88000 195.000
32.90000 208.000
32.92000 201.000
32.94000 193.000
32.96000 196.000
32.98000 190.000
33.00000 198.000
33.02000 157.000
33.04000 186.000
33.06000 201.000
33.08000 187.000
33.10000 172.000
33.12000 179.000
33.14000 180.000
33.16000 197.000
33.18000 210.000
33.20000 177.000
33.22000 209.000
33.24000 198.000
33.26000 175.000
33.28000 194.000
33.30000 196.000
33.32000 204.000
33.34000 184.000
33.36000 193.000
33.38000 198.000
33.40000 181.000
33.42000 177.000
33.44000 219.000
33.46000 184.000
33.48000 150.000
33.50000 198.000
33.52000 193.000
33.54000 176.000
33.56000 213.000
33.58000 195.000
33.60000 175.000
33.62000 226.000
33.64000 169.000
33.66000 225.000
33.68000 164.000
33.70000 166.000
33.72000 190.000
33.74000 173.000
33.76000 160.000
33.78000 185.000
33.80000 194.000
33.82000 172.000
33.84000 196.000
33.86000 192.000
33.88000 173.000
33.90000 200.000
33.92000 165.000
33.94000 191.000
33.96000 164.000
33.98000 194.000
34.00000 166.000
34.02000 158.000
34.04000 168.000
34.06000 192.000
34.08000 192.000
34.10000 179.000
34.12000 176.000
34.14000 197.000
34.16000 178.000
34.18000 191.000
34.20000 173.000
34.22000 170.000
34.24000 183.000
34.26000 173.000
34.28000 165.000
34.30000 189.000
34.32000 167.000
34.34000 178.000
34.36000 174.000
34.38000 202.000
34.40000 192.000
34.42000 167.000
34.44000 174.000
34.46000 183.000
34.48000 183.000
34.50000 207.000
34.52000 193.000
34.54000 180.000
34.56000 207.000
34.58000 186.000
34.60000 175.000
34.62000 219.000
34.64000 218.000
34.66000 196.000
34.68000 241.000
34.70000 233.000
34.72000 235.000
34.74000 273.000
34.76000 271.000
34.78000 326.000
34.80000 312.000
34.82000 370.000
34.84000 428.000
34.86000 524.000
34.88000 476.000
34.90000 526.000
34.92000 581.000
34.94000 599.000
34.96000 579.000
34.98000 597.000
35.00000 486.000
35.02000 439.000
35.04000 426.000
35.06000 387.000
35.08000 351.000
35.10000 263.000
35.12000 276.000
35.14000 262.000
35.16000 227.000
35.18000 231.000
35.20000 179.000
35.22000 188.000
35.24000 221.000
35.26000 163.000
35.28000 180.000
35.30000 182.000
35.32000 176.000
35.34000 155.000
35.36000 184.000
35.38000 186.000
35.40000 187.000
35.42000 170.000
35.44000 196.000
35.46000 182.000
35.48000 167.000
35.50000 165.000
35.52000 172.000
35.54000 175.000
35.56000 165.000
35.58000 168.000
35.60000 164.000
35.62000 190.000
35.64000 202.000
35.66000 179.000
35.68000 188.000
35.70000 169.000
35.72000 164.000
35.74000 162.000
35.76000 170.000
35.78000 149.000
35.80000 190.000
35.82000 160.000
35.84000 182.000
35.86000 188.000
35.88000 146.000
35.90000 186.000
35.92000 136.000
35.94000 171.000
35.96000 159.000
35.98000 160.000
36.00000 200.000
36.02000 152.000
36.04000 158.000
36.06000 157.000
36.08000 163.000
36.10000 151.000
36.12000 151.000
36.14000 178.000
36.16000 157.000
36.18000 162.000
36.20000 172.000
36.22000 150.000
36.24000 137.000
36.26000 180.000
36.28000 157.000
36.30000 178.000
36.32000 147.000
36.34000 138.000
36.36000 170.000
36.38000 170.000
36.40000 143.000
36.42000 190.000
36.44000 164.000
36.46000 150.000
36.48000 180.000
36.50000 156.000
36.52000 161.000
36.54000 193.000
36.56000 135.000
36.58000 171.000
36.60000 146.000
36.62000 170.000
36.64000 159.000
36.66000 162.000
36.68000 149.000
36.70000 165.000
36.72000 158.000
36.74000 190.000
36.76000 178.000
36.78000 157.000
36.80000 170.000
36.82000 156.000
36.84000 187.000
36.86000 146.000
36.88000 164.000
36.90000 171.000
36.92000 153.000
36.94000 163.000
36.96000 154.000
36.98000 197.000
37.00000 171.000
37.02000 146.000
37.04000 134.000
37.06000 163.000
37.08000 148.000
37.10000 194.000
37.12000 154.000
37.14000 162.000
37.16000 169.000
37.18000 181.000
37.20000 153.000
37.22000 162.000
37.24000 164.000
37.26000 157.000
37.28000 163.000
37.30000 167.000
37.32000 144.000
37.34000 171.000
37.36000 162.000
37.38000 149.000
37.40000 175.000
37.42000 135.000
37.44000 140.000
37.46000 157.000
37.48000 158.000
37.50000 166.000
37.52000 160.000
37.54000 165.000
37.56000 149.000
37.58000 170.000
37.60000 161.000
37.62000 173.000
37.64000 192.000
37.66000 168.000
37.68000 167.000
37.70000 150.000
37.72000 176.000
37.74000 161.000
37.76000 151.000
37.78000 149.000
37.80000 152.000
37.82000 170.000
37.84000 158.000
37.86000 166.000
37.88000 173.000
37.90000 159.000
37.92000 190.000
37.94000 160.000
37.96000 162.000
37.98000 159.000
38.00000 173.000
38.02000 131.000
38.04000 143.000
38.06000 142.000
38.08000 155.000
38.10000 169.000
38.12000 161.000
38.14000 165.000
38.16000 154.000
38.18000 172.000
38.20000 154.000
38.22000 176.000
38.24000 158.000
38.26000 167.000
38.28000 162.000
38.30000 177.000
38.32000 178.000
38.34000 186.000
38.36000 170.000
38.38000 168.000
38.40000 173.000
38.42000 190.000
38.44000 199.000
38.46000 206.000
38.48000 225.000
38.50000 216.000
38.52000 211.000
38.54000 242.000
38.56000 242.000
38.58000 251.000
38.60000 252.000
38.62000 258.000
38.64000 300.000
38.66000 300.000
38.68000 283.000
38.70000 273.000
38.72000 300.000
38.74000 263.000
38.76000 267.000
38.78000 274.000
38.80000 252.000
38.82000 228.000
38.84000 219.000
38.86000 220.000
38.88000 166.000
38.90000 214.000
38.92000 198.000
38.94000 184.000
38.96000 150.000
38.98000 165.000
39.00000 194.000
39.02000 157.000
39.04000 193.000
39.06000 185.000
39.08000 184.000
39.10000 195.000
39.12000 187.000
39.14000 185.000
39.16000 170.000
39.18000 183.000
39.20000 157.000
39.22000 178.000
39.24000 159.000
39.26000 173.000
39.28000 170.000
39.30000 168.000
39.32000 190.000
39.34000 194.000
39.36000 177.000
39.38000 192.000
39.40000 206.000
39.42000 201.000
39.44000 207.000
39.46000 205.000
39.48000 210.000
39.50000 228.000
39.52000 192.000
39.54000 201.000
39.56000 206.000
39.58000 206.000
39.60000 244.000
39.62000 187.000
39.64000 218.000
39.66000 216.000
39.68000 202.000
39.70000 200.000
39.72000 195.000
39.74000 171.000
39.76000 191.000
39.78000 181.000
39.80000 175.000
39.82000 191.000
39.84000 204.000
39.86000 176.000
39.88000 172.000
39.90000 172.000
39.92000 201.000
39.94000 174.000
39.96000 168.000
39.98000 194.000
40.00000 196.000
40.02000 198.000
40.04000 203.000
40.06000 194.000
40.08000 177.000
40.10000 212.000
40.12000 230.000
40.14000 230.000
40.16000 231.000
40.18000 226.000
40.20000 245.000
40.22000 246.000
40.24000 263.000
40.26000 278.000
40.28000 309.000
40.30000 363.000
40.32000 396.000
40.34000 409.000
40.36000 496.000
40.38000 613.000
40.40000 686.000
40.42000 857.000
40.44000 951.000
40.46000 1172.000
40.48000 1279.000
40.50000 1594.000
40.52000 1803.000
40.54000 1924.000
40.56000 1900.000
40.58000 1883.000
40.60000 1760.000
40.62000 1610.000
40.64000 1404.000
40.66000 1360.000
40.68000 1182.000
40.70000 953.000
40.72000 839.000
40.74000 687.000
40.76000 638.000
40.78000 463.000
40.80000 450.000
40.82000 378.000
40.84000 335.000
40.86000 317.000
40.88000 276.000
40.90000 267.000
40.92000 228.000
40.94000 229.000
40.96000 236.000
40.98000 226.000
41.00000 226.000
41.02000 235.000
41.04000 206.000
41.06000 233.000
41.08000 258.000
41.10000 241.000
41.12000 257.000
41.14000 246.000
41.16000 224.000
41.18000 272.000
41.20000 266.000
41.22000 244.000
41.24000 278.000
41.26000 265.000
41.28000 279.000
41.30000 284.000
41.32000 261.000
41.34000 271.000
41.36000 246.000
41.38000 251.000
41.40000 235.000
41.42000 259.000
41.44000 234.000
41.46000 223.000
41.48000 227.000
41.50000 224.000
41.52000 201.000
41.54000 227.000
41.56000 197.000
41.58000 224.000
41.60000 206.000
41.62000 217.000
41.64000 216.000
41.66000 191.000
41.68000 210.000
41.70000 211.000
41.72000 189.000
41.74000 209.000
41.76000 215.000
41.78000 203.000
41.80000 186.000
41.82000 198.000
41.84000 196.000
41.86000 161.000
41.88000 167.000
41.90000 204.000
41.92000 177.000
41.94000 177.000
41.96000 162.000
41.98000 177.000
42.00000 178.000
42.02000 171.000
42.04000 181.000
42.06000 167.000
42.08000 213.000
42.10000 164.000
42.12000 175.000
42.14000 182.000
42.16000 174.000
42.18000 185.000
42.20000 169.000
42.22000 181.000
42.24000 190.000
42.26000 193.000
42.28000 185.000
42.30000 174.000
42.32000 179.000
42.34000 192.000
42.36000 181.000
42.38000 204.000
42.40000 151.000
42.42000 196.000
42.44000 197.000
42.46000 177.000
42.48000 195.000
42.50000 196.000
42.52000 209.000
42.54000 176.000
42.56000 202.000
42.58000 168.000
42.60000 199.000
42.62000 208.000
42.64000 188.000
42.66000 189.000
42.68000 192.000
42.70000 186.000
42.72000 220.000
42.74000 212.000
42.76000 237.000
42.78000 222.000
42.80000 227.000
42.82000 232.000
42.84000 293.000
42.86000 279.000
42.88000 345.000
42.90000 374.000
42.92000 383.000
42.94000 487.000
42.96000 599.000
42.98000 622.000
43.00000 744.000
43.02000 901.000
43.04000 1019.000
43.06000 1230.000
43.08000 1399.000
43.10000 1512.000
43.12000 1775.000
43.14000 1788.000
43.16000 1696.000
43.18000 1558.000
43.20000 1501.000
43.22000 1326.000
43.24000 1241.000
43.26000 1099.000
43.28000 914.000
43.30000 807.000
43.32000 721.000
43.34000 565.000
43.36000 430.000
43.38000 417.000
43.40000 335.000
43.42000 299.000
43.44000 319.000
43.46000 272.000
43.48000 249.000
43.50000 212.000
43.52000 209.000
43.54000 196.000
43.56000 210.000
43.58000 171.000
43.60000 159.000
43.62000 167.000
43.64000 191.000
43.66000 188.000
43.68000 188.000
43.70000 168.000
43.72000 159.000
43.74000 192.000
43.76000 172.000
43.78000 192.000
43.80000 168.000
43.82000 191.000
43.84000 170.000
43.86000 141.000
43.88000 185.000
43.90000 157.000
43.92000 169.000
43.94000 156.000
43.96000 173.000
43.98000 186.000
44.00000 158.000
44.02000 161.000
44.04000 157.000
44.06000 158.000
44.08000 163.000
44.10000 164.000
44.12000 191.000
44.14000 125.000
44.16000 139.000
44.18000 163.000
44.20000 141.000
44.22000 166.000
44.24000 199.000
44.26000 155.000
44.28000 165.000
44.30000 142.000
44.32000 150.000
44.34000 136.000
44.36000 152.000
44.38000 131.000
44.40000 156.000
44.42000 128.000
44.44000 130.000
44.46000 127.000
44.48000 162.000
44.50000 132.000
44.52000 154.000
44.54000 151.000
44.56000 153.000
44.58000 148.000
44.60000 157.000
44.62000 140.000
44.64000 135.000
44.66000 161.000
44.68000 127.000
44.70000 133.000
44.72000 134.000
44.74000 128.000
44.76000 131.000
44.78000 131.000
44.80000 131.000
44.82000 124.000
44.84000 125.000
44.86000 143.000
44.88000 133.000
44.90000 149.000
44.92000 158.000
44.94000 146.000
44.96000 133.000
44.98000 143.000
45.00000 133.000
45.02000 135.000
45.04000 178.000
45.06000 167.000
45.08000 137.000
45.10000 140.000
45.12000 132.000
45.14000 175.000
45.16000 144.000
45.18000 140.000
45.20000 167.000
45.22000 143.000
45.24000 155.000
45.26000 134.000
45.28000 172.000
45.30000 158.000
45.32000 160.000
45.34000 140.000
45.36000 165.000
45.38000 123.000
45.40000 147.000
45.42000 142.000
45.44000 145.000
45.46000 184.000
45.48000 172.000
45.50000 165.000
45.52000 173.000
45.54000 199.000
45.56000 173.000
45.58000 220.000
45.60000 200.000
45.62000 188.000
45.64000 172.000
45.66000 212.000
45.68000 180.000
45.70000 147.000
45.72000 158.000
45.74000 160.000
45.76000 157.000
45.78000 129.000
45.80000 130.000
45.82000 166.000
45.84000 164.000
45.86000 154.000
45.88000 146.000
45.90000 164.000
45.92000 147.000
45.94000 110.000
45.96000 148.000
45.98000 142.000
46.00000 127.000
46.02000 145.000
46.04000 130.000
46.06000 121.000
46.08000 126.000
46.10000 162.000
46.12000 128.000
46.14000 135.000
46.16000 136.000
46.18000 129.000
46.20000 133.000
46.22000 139.000
46.24000 149.000
46.26000 133.000
46.28000 122.000
46.30000 115.000
46.32000 127.000
46.34000 131.000
46.36000 141.000
46.38000 104.000
46.40000 123.000
46.42000 113.000
46.44000 138.000
46.46000 137.000
46.48000 139.000
46.50000 120.000
46.52000 135.000
46.54000 128.000
46.56000 130.000
46.58000 136.000
46.60000 126.000
46.62000 128.000
46.64000 131.000
46.66000 145.000
46.68000 118.000
46.70000 114.000
46.72000 107.000
46.74000 115.000
46.76000 118.000
46.78000 126.000
46.80000 126.000
46.82000 112.000
46.84000 107.000
46.86000 140.000
46.88000 127.000
46.90000 127.000
46.92000 119.000
46.94000 110.000
46.96000 119.000
46.98000 121.000
47.00000 115.000
47.02000 123.000
47.04000 135.000
47.06000 115.000
47.08000 110.000
47.10000 123.000
47.12000 119.000
47.14000 130.000
47.16000 127.000
47.18000 120.000
47.20000 120.000
47.22000 119.000
47.24000 127.000
47.26000 126.000
47.28000 124.000
47.30000 114.000
47.32000 111.000
47.34000 117.000
47.36000 119.000
47.38000 131.000
47.40000 129.000
47.42000 107.000
47.44000 116.000
47.46000 129.000
47.48000 100.000
47.50000 108.000
47.52000 139.000
47.54000 140.000
47.56000 139.000
47.58000 126.000
47.60000 113.000
47.62000 117.000
47.64000 112.000
47.66000 129.000
47.68000 118.000
47.70000 120.000
47.72000 110.000
47.74000 127.000
47.76000 118.000
47.78000 108.000
47.80000 143.000
47.82000 141.000
47.84000 150.000
47.86000 134.000
47.88000 148.000
47.90000 154.000
47.92000 132.000
47.94000 145.000
47.96000 152.000
47.98000 150.000
48.00000 181.000
48.02000 139.000
48.04000 128.000
48.06000 137.000
48.08000 150.000
48.10000 122.000
48.12000 154.000
48.14000 130.000
48.16000 136.000
48.18000 121.000
48.20000 111.000
48.22000 111.000
48.24000 131.000
48.26000 120.000
48.28000 126.000
48.30000 112.000
48.32000 99.000
48.34000 131.000
48.36000 128.000
48.38000 100.000
48.40000 114.000
48.42000 132.000
48.44000 112.000
48.46000 128.000
48.48000 135.000
48.50000 108.000
48.52000 124.000
48.54000 121.000
48.56000 117.000
48.58000 106.000
48.60000 112.000
48.62000 96.000
48.64000 131.000
48.66000 113.000
48.68000 89.000
48.70000 110.000
48.72000 101.000
48.74000 103.000
48.76000 110.000
48.78000 77.000
48.80000 130.000
48.82000 115.000
48.84000 124.000
48.86000 129.000
48.88000 145.000
48.90000 108.000
48.92000 112.000
48.94000 104.000
48.96000 119.000
48.98000 126.000
49.00000 102.000
49.02000 121.000
49.04000 119.000
49.06000 126.000
49.08000 129.000
49.10000 123.000
49.12000 107.000
49.14000 111.000
49.16000 121.000
49.18000 116.000
49.20000 114.000
49.22000 125.000
49.24000 108.000
49.26000 132.000
49.28000 109.000
49.30000 107.000
49.32000 102.000
49.34000 116.000
49.36000 130.000
49.38000 132.000
49.40000 131.000
49.42000 124.000
49.44000 131.000
49.46000 96.000
49.48000 125.000
49.50000 131.000
49.52000 117.000
49.54000 126.000
49.56000 104.000
49.58000 112.000
49.60000 124.000
49.62000 121.000
49.64000 121.000
49.66000 129.000
49.68000 126.000
49.70000 114.000
49.72000 101.000
49.74000 113.000
49.76000 118.000
49.78000 126.000
49.80000 139.000
49.82000 118.000
49.84000 144.000
49.86000 141.000
49.88000 146.000
49.90000 138.000
49.92000 165.000
49.94000 169.000
49.96000 168.000
49.98000 147.000
50.00000 186.000
50.02000 192.000
50.04000 220.000
50.06000 248.000
50.08000 259.000
50.10000 294.000
50.12000 362.000
50.14000 380.000
50.16000 487.000
50.18000 525.000
50.20000 589.000
50.22000 572.000
50.24000 560.000
50.26000 549.000
50.28000 528.000
50.30000 494.000
50.32000 491.000
50.34000 445.000
50.36000 430.000
50.38000 380.000
50.40000 333.000
50.42000 288.000
50.44000 248.000
50.46000 252.000
50.48000 226.000
50.50000 191.000
50.52000 162.000
50.54000 163.000
50.56000 148.000
50.58000 129.000
50.60000 137.000
50.62000 150.000
50.64000 125.000
50.66000 123.000
50.68000 134.000
50.70000 137.000
50.72000 111.000
50.74000 128.000
50.76000 129.000
50.78000 113.000
50.80000 129.000
50.82000 116.000
50.84000 132.000
50.86000 110.000
50.88000 122.000
50.90000 129.000
50.92000 106.000
50.94000 98.000
50.96000 128.000
50.98000 106.000
51.00000 102.000
51.02000 121.000
51.04000 123.000
51.06000 115.000
51.08000 122.000
51.10000 125.000
51.12000 110.000
51.14000 116.000
51.16000 110.000
51.18000 108.000
51.20000 96.000
51.22000 101.000
51.24000 91.000
51.26000 118.000
51.28000 119.000
51.30000 101.000
51.32000 116.000
51.34000 108.000
51.36000 104.000
51.38000 118.000
51.40000 111.000
51.42000 111.000
51.44000 113.000
51.46000 108.000
51.48000 103.000
51.50000 100.000
51.52000 105.000
51.54000 98.000
51.56000 100.000
51.58000 121.000
51.60000 109.000
51.62000 107.000
51.64000 108.000
51.66000 116.000
51.68000 109.000
51.70000 96.000
51.72000 101.000
51.74000 99.000
51.76000 119.000
51.78000 105.000
51.80000 105.000
51.82000 88.000
51.84000 114.000
51.86000 102.000
51.88000 103.000
51.90000 110.000
51.92000 121.000
51.94000 124.000
51.96000 128.000
51.98000 107.000
52.00000 127.000
52.02000 110.000
52.04000 124.000
52.06000 133.000
52.08000 141.000
52.10000 145.000
52.12000 120.000
52.14000 138.000
52.16000 135.000
52.18000 162.000
52.20000 180.000
52.22000 167.000
52.24000 197.000
52.26000 205.000
52.28000 226.000
52.30000 234.000
52.32000 272.000
52.34000 321.000
52.36000 357.000
52.38000 413.000
52.40000 437.000
52.42000 408.000
52.44000 443.000
52.46000 457.000
52.48000 403.000
52.50000 392.000
52.52000 410.000
52.54000 356.000
52.56000 333.000
52.58000 316.000
52.60000 272.000
52.62000 248.000
52.64000 230.000
52.66000 184.000
52.68000 168.000
52.70000 168.000
52.72000 152.000
52.74000 129.000
52.76000 148.000
52.78000 115.000
52.80000 109.000
52.82000 112.000
52.84000 131.000
52.86000 117.000
52.88000 114.000
52.90000 90.000
52.92000 129.000
52.94000 126.000
52.96000 108.000
52.98000 115.000
53.00000 122.000
53.02000 113.000
53.04000 108.000
53.06000 95.000
53.08000 93.000
53.10000 124.000
53.12000 103.000
53.14000 124.000
53.16000 99.000
53.18000 112.000
53.20000 108.000
53.22000 107.000
53.24000 109.000
53.26000 90.000
53.28000 118.000
53.30000 112.000
53.32000 112.000
53.34000 105.000
53.36000 107.000
53.38000 115.000
53.40000 123.000
53.42000 114.000
53.44000 91.000
53.46000 121.000
53.48000 120.000
53.50000 101.000
53.52000 94.000
53.54000 105.000
53.56000 105.000
53.58000 101.000
53.60000 89.000
53.62000 96.000
53.64000 99.000
53.66000 101.000
53.68000 109.000
53.70000 118.000
53.72000 105.000
53.74000 100.000
53.76000 108.000
53.78000 104.000
53.80000 101.000
53.82000 86.000
53.84000 85.000
53.86000 79.000
53.88000 115.000
53.90000 86.000
53.92000 101.000
53.94000 96.000
53.96000 86.000
53.98000 106.000
54.00000 93.000
54.02000 100.000
54.04000 83.000
54.06000 105.000
54.08000 104.000
54.10000 99.000
54.12000 106.000
54.14000 70.000
54.16000 89.000
54.18000 102.000
54.20000 86.000
54.22000 119.000
54.24000 101.000
54.26000 101.000
54.28000 106.000
54.30000 90.000
54.32000 113.000
54.34000 109.000
54.36000 102.000
54.38000 110.000
54.40000 104.000
54.42000 123.000
54.44000 124.000
54.46000 135.000
54.48000 170.000
54.50000 155.000
54.52000 175.000
54.54000 169.000
54.56000 182.000
54.58000 173.000
54.60000 183.000
54.62000 151.000
54.64000 166.000
54.66000 149.000
54.68000 182.000
54.70000 170.000
54.72000 138.000
54.74000 152.000
54.76000 140.000
54.78000 117.000
54.80000 129.000
54.82000 115.000
54.84000 95.000
54.86000 122.000
54.88000 99.000
54.90000 101.000
54.92000 96.000
54.94000 85.000
54.96000 85.000
54.98000 89.000
55.00000 96.000
55.02000 120.000
55.04000 92.000
55.06000 90.000
55.08000 95.000
55.10000 95.000
55.12000 77.000
55.14000 102.000
55.16000 95.000
55.18000 100.000
55.20000 72.000
55.22000 92.000
55.24000 83.000
55.26000 95.000
55.28000 89.000
55.30000 92.000
55.32000 84.000
55.34000 109.000
55.36000 98.000
55.38000 87.000
55.40000 95.000
55.42000 89.000
55.44000 79.000
55.46000 92.000
55.48000 86.000
55.50000 70.000
55.52000 88.000
55.54000 93.000
55.56000 86.000
55.58000 92.000
55.60000 100.000
55.62000 102.000
55.64000 77.000
55.66000 84.000
55.68000 97.000
55.70000 95.000
55.72000 95.000
55.74000 86.000
55.76000 79.000
55.78000 98.000
55.80000 88.000
55.82000 106.000
55.84000 102.000
55.86000 97.000
55.88000 95.000
55.90000 93.000
55.92000 84.000
55.94000 84.000
55.96000 79.000
55.98000 87.000
56.00000 106.000
56.02000 97.000
56.04000 89.000
56.06000 89.000
56.08000 82.000
56.10000 100.000
56.12000 76.000
56.14000 95.000
56.16000 99.000
56.18000 85.000
56.20000 106.000
56.22000 92.000
56.24000 81.000
56.26000 95.000
56.28000 104.000
56.30000 99.000
56.32000 98.000
56.34000 106.000
56.36000 93.000
56.38000 117.000
56.40000 111.000
56.42000 97.000
56.44000 111.000
56.46000 113.000
56.48000 111.000
56.50000 101.000
56.52000 120.000
56.54000 111.000
56.56000 127.000
56.58000 110.000
56.60000 115.000
56.62000 107.000
56.64000 119.000
56.66000 97.000
56.68000 93.000
56.70000 91.000
56.72000 95.000
56.74000 80.000
56.76000 114.000
56.78000 92.000
56.80000 80.000
56.82000 82.000
56.84000 92.000
56.86000 83.000
56.88000 103.000
56.90000 95.000
56.92000 84.000
56.94000 98.000
56.96000 94.000
56.98000 86.000
57.00000 86.000
57.02000 78.000
57.04000 95.000
57.06000 79.000
57.08000 99.000
57.10000 84.000
57.12000 85.000
57.14000 75.000
57.16000 77.000
57.18000 92.000
57.20000 83.000
57.22000 81.000
57.24000 93.000
57.26000 91.000
57.28000 81.000
57.30000 92.000
57.32000 90.000
57.34000 91.000
57.36000 95.000
57.38000 82.000
57.40000 84.000
57.42000 90.000
57.44000 128.000
57.46000 82.000
57.48000 99.000
57.50000 90.000
57.52000 82.000
57.54000 84.000
57.56000 95.000
57.58000 84.000
57.60000 84.000
57.62000 104.000
57.64000 77.000
57.66000 103.000
57.68000 95.000
57.70000 86.000
57.72000 102.000
57.74000 93.000
57.76000 99.000
57.78000 79.000
57.80000 86.000
57.82000 89.000
57.84000 89.000
57.86000 74.000
57.88000 99.000
57.90000 89.000
57.92000 111.000
57.94000 84.000
57.96000 99.000
57.98000 106.000
58.00000 99.000
58.02000 96.000
58.04000 87.000
58.06000 84.000
58.08000 101.000
58.10000 93.000
58.12000 98.000
58.14000 91.000
58.16000 103.000
58.18000 101.000
58.20000 99.000
58.22000 110.000
58.24000 113.000
58.26000 87.000
58.28000 83.000
58.30000 82.000
58.32000 103.000
58.34000 105.000
58.36000 95.000
58.38000 111.000
58.40000 95.000
58.42000 104.000
58.44000 115.000
58.46000 121.000
58.48000 132.000
58.50000 133.000
58.52000 130.000
58.54000 144.000
58.56000 154.000
58.58000 175.000
58.60000 179.000
58.62000 170.000
58.64000 219.000
58.66000 251.000
58.68000 188.000
58.70000 213.000
58.72000 216.000
58.74000 215.000
58.76000 178.000
58.78000 179.000
58.80000 169.000
58.82000 159.000
58.84000 159.000
58.86000 137.000
58.88000 159.000
58.90000 135.000
58.92000 141.000
58.94000 141.000
58.96000 140.000
58.98000 97.000
59.00000 114.000
59.02000 102.000
59.04000 99.000
59.06000 103.000
59.08000 111.000
59.10000 93.000
59.12000 101.000
59.14000 103.000
59.16000 84.000
59.18000 97.000
59.20000 80.000
59.22000 99.000
59.24000 119.000
59.26000 95.000
59.28000 98.000
59.30000 91.000
59.32000 104.000
59.34000 93.000
59.36000 114.000
59.38000 114.000
59.40000 100.000
59.42000 101.000
59.44000 84.000
59.46000 102.000
59.48000 96.000
59.50000 108.000
59.52000 103.000
59.54000 81.000
59.56000 96.000
59.58000 106.000
59.60000 104.000
59.62000 91.000
59.64000 100.000
59.66000 82.000
59.68000 96.000
59.70000 85.000
59.72000 71.000
59.74000 86.000
59.76000 104.000
59.78000 107.000
59.80000 81.000
59.82000 94.000
59.84000 86.000
59.86000 99.000
59.88000 90.000
59.90000 80.000
59.92000 98.000
59.94000 89.000
59.96000 106.000
