5.00000 786.000
5.02000 782.000
5.04000 799.000
5.06000 798.000
5.08000 825.000
5.10000 804.000
5.12000 785.000
5.14000 760.000
5.16000 733.000
5.18000 755.000
5.20000 794.000
5.22000 785.000
5.24000 765.000
5.26000 753.000
5.28000 740.000
5.30000 735.000
5.32000 779.000
5.34000 742.000
5.36000 746.000
5.38000 751.000
5.40000 757.000
5.42000 741.000
5.44000 731.000
5.46000 768.000
5.48000 707.000
5.50000 740.000
5.52000 691.000
5.54000 705.000
5.56000 705.000
5.58000 698.000
5.60000 687.000
5.62000 691.000
5.64000 716.000
5.66000 714.000
5.68000 732.000
5.70000 707.000
5.72000 733.000
5.74000 719.000
5.76000 723.000
5.78000 719.000
5.80000 705.000
5.82000 672.000
5.84000 686.000
5.86000 703.000
5.88000 646.000
5.90000 610.000
5.92000 690.000
5.94000 646.000
5.96000 632.000
5.98000 693.000
6.00000 678.000
6.02000 617.000
6.04000 637.000
6.06000 673.000
6.08000 640.000
6.10000 695.000
6.12000 645.000
6.14000 649.000
6.16000 660.000
6.18000 674.000
6.20000 610.000
6.22000 665.000
6.24000 636.000
6.26000 645.000
6.28000 589.000
6.30000 646.000
6.32000 613.000
6.34000 663.000
6.36000 637.000
6.38000 626.000
6.40000 593.000
6.42000 626.000
6.44000 629.000
6.46000 583.000
6.48000 578.000
6.50000 580.000
6.52000 597.000
6.54000 562.000
6.56000 606.000
6.58000 591.000
6.60000 604.000
6.62000 584.000
6.64000 605.000
6.66000 574.000
6.68000 577.000
6.70000 562.000
6.72000 602.000
6.74000 595.000
6.76000 623.000
6.78000 602.000
6.80000 585.000
6.82000 616.000
6.84000 560.000
6.86000 577.000
6.88000 543.000
6.90000 578.000
6.92000 553.000
6.94000 583.000
6.96000 556.000
6.98000 552.000
7.00000 552.000
7.02000 582.000
7.04000 572.000
7.06000 527.000
7.08000 537.000
7.10000 520.000
7.12000 541.000
7.14000 519.000
7.16000 509.000
7.18000 534.000
7.20000 571.000
7.22000 572.000
7.24000 520.000
7.26000 573.000
7.28000 559.000
7.30000 537.000
7.32000 556.000
7.34000 550.000
7.36000 548.000
7.38000 567.000
7.40000 535.000
7.42000 527.000
7.44000 507.000
7.46000 563.000
7.48000 532.000
7.50000 498.000
7.52000 528.000
7.54000 493.000
7.56000 574.000
7.58000 536.000
7.60000 481.000
7.62000 508.000
7.64000 562.000
7.66000 460.000
7.68000 502.000
7.70000 470.000
7.72000 499.000
7.74000 532.000
7.76000 490.000
7.78000 530.000
7.80000 495.000
7.82000 537.000
7.84000 483.000
7.86000 521.000
7.88000 490.000
7.90000 509.000
7.92000 505.000
7.94000 478.000
7.96000 458.000
7.98000 506.000
8.00000 506.000
8.02000 493.000
8.04000 468.000
8.06000 470.000
8.08000 469.000
8.10000 465.000
8.12000 516.000
8.14000 493.000
8.16000 469.000
8.18000 471.000
8.20000 466.000
8.22000 465.000
8.24000 464.000
8.26000 522.000
8.28000 445.000
8.30000 465.000
8.32000 469.000
8.34000 461.000
8.36000 448.000
8.38000 465.000
8.40000 461.000
8.42000 469.000
8.44000 494.000
8.46000 461.000
8.48000 447.000
8.50000 453.000
8.52000 451.000
8.54000 438.000
8.56000 443.000
8.58000 451.000
8.60000 461.000
8.62000 423.000
8.64000 410.000
8.66000 442.000
8.68000 481.000
8.70000 441.000
8.72000 452.000
8.74000 481.000
8.76000 475.000
8.78000 431.000
8.80000 470.000
8.82000 471.000
8.84000 497.000
8.86000 453.000
8.88000 449.000
8.90000 467.000
8.92000 436.000
8.94000 456.000
8.96000 474.000
8.98000 455.000
9.00000 435.000
9.02000 441.000
9.04000 407.000
9.06000 471.000
9.08000 462.000
9.10000 453.000
9.12000 425.000
9.14000 416.000
9.16000 404.000
9.18000 429.000
9.20000 433.000
9.22000 411.000
9.24000 382.000
9.26000 376.000
9.28000 452.000
9.30000 396.000
9.32000 430.000
9.34000 388.000
9.36000 382.000
9.38000 378.000
9.40000 386.000
9.42000 383.000
9.44000 420.000
9.46000 425.000
9.48000 415.000
9.50000 434.000
9.52000 416.000
9.54000 402.000
9.56000 393.000
9.58000 403.000
9.60000 402.000
9.62000 381.000
9.64000 392.000
9.66000 438.000
9.68000 409.000
9.70000 401.000
9.72000 394.000
9.74000 399.000
9.76000 404.000
9.78000 386.000
9.80000 396.000
9.82000 410.000
9.84000 378.000
9.86000 395.000
9.88000 382.000
9.90000 373.000
9.92000 394.000
9.94000 401.000
9.96000 408.000
9.98000 391.000
10.00000 402.000
10.02000 426.000
10.04000 419.000
10.06000 392.000
10.08000 378.000
10.10000 392.000
10.12000 371.000
10.14000 376.000
10.16000 373.000
10.18000 431.000
10.20000 386.000
10.22000 378.000
10.24000 395.000
10.26000 373.000
10.28000 362.000
10.30000 382.000
10.32000 352.000
10.34000 370.000
10.36000 343.000
10.38000 348.000
10.40000 394.000
10.42000 334.000
10.44000 331.000
10.46000 363.000
10.48000 340.000
10.50000 349.000
10.52000 362.000
10.54000 381.000
10.56000 346.000
10.58000 359.000
10.60000 369.000
10.62000 387.000
10.64000 328.000
10.66000 394.000
10.68000 323.000
10.70000 349.000
10.72000 349.000
10.74000 332.000
10.76000 337.000
10.78000 354.000
10.80000 348.000
10.82000 317.000
10.84000 369.000
10.86000 357.000
10.88000 328.000
10.90000 340.000
10.92000 347.000
10.94000 334.000
10.96000 336.000
10.98000 359.000
11.00000 320.000
11.02000 344.000
11.04000 327.000
11.06000 367.000
11.08000 371.000
11.10000 344.000
11.12000 378.000
11.14000 364.000
11.16000 369.000
11.18000 357.000
11.20000 342.000
11.22000 370.000
11.24000 330.000
11.26000 328.000
11.28000 345.000
11.30000 372.000
11.32000 381.000
11.34000 367.000
11.36000 425.000
11.38000 413.000
11.40000 405.000
11.42000 418.000
11.44000 415.000
11.46000 459.000
11.48000 500.000
11.50000 464.000
11.52000 519.000
11.54000 548.000
11.56000 539.000
11.58000 532.000
11.60000 488.000
11.62000 487.000
11.64000 484.000
11.66000 509.000
11.68000 423.000
11.70000 420.000
11.72000 404.000
11.74000 431.000
11.76000 447.000
11.78000 408.000
11.80000 421.000
11.82000 430.000
11.84000 415.000
11.86000 451.000
11.88000 401.000
11.90000 450.000
11.92000 432.000
11.94000 404.000
11.96000 428.000
11.98000 442.000
12.00000 458.000
12.02000 449.000
12.04000 447.000
12.06000 451.000
12.08000 465.000
12.10000 522.000
12.12000 547.000
12.14000 541.000
12.16000 595.000
12.18000 595.000
12.20000 560.000
12.22000 534.000
12.24000 535.000
12.26000 514.000
12.28000 518.000
12.30000 501.000
12.32000 524.000
12.34000 509.000
12.36000 542.000
12.38000 594.000
12.40000 578.000
12.42000 600.000
12.44000 643.000
12.46000 600.000
12.48000 669.000
12.50000 688.000
12.52000 716.000
12.54000 881.000
12.56000 908.000
12.58000 950.000
12.60000 1025.000
12.62000 1090.000
12.64000 1116.000
12.66000 1252.000
12.68000 1175.000
12.70000 1161.000
12.72000 1070.000
12.74000 973.000
12.76000 830.000
12.78000 812.000
12.80000 650.000
12.82000 605.000
12.84000 523.000
12.86000 502.000
12.88000 459.000
12.90000 452.000
12.92000 457.000
12.94000 439.000
12.96000 410.000
12.98000 427.000
13.00000 411.000
13.02000 359.000
13.04000 403.000
13.06000 367.000
13.08000 373.000
13.10000 439.000
13.12000 411.000
13.14000 418.000
13.16000 479.000
13.18000 435.000
13.20000 455.000
13.22000 445.000
13.24000 414.000
13.26000 443.000
13.28000 482.000
13.30000 490.000
13.32000 473.000
13.34000 475.000
13.36000 482.000
13.38000 521.000
13.40000 517.000
13.42000 527.000
13.44000 516.000
13.46000 553.000
13.48000 601.000
13.50000 574.000
13.52000 554.000
13.54000 648.000
13.56000 659.000
13.58000 698.000
13.60000 720.000
13.62000 718.000
13.64000 747.000
13.66000 772.000
13.68000 810.000
13.70000 811.000
13.72000 859.000
13.74000 877.000
13.76000 1009.000
13.78000 1004.000
13.80000 1097.000
13.82000 1207.000
13.84000 1284.000
13.86000 1304.000
13.88000 1432.000
13.90000 1628.000
13.92000 1745.000
13.94000 1753.000
13.96000 2019.000
13.98000 2301.000
14.00000 2354.000
14.02000 2507.000
14.04000 2789.000
14.06000 2857.000
14.08000 2827.000
14.10000 2791.000
14.12000 2355.000
14.14000 1928.000
14.16000 1620.000
14.18000 1280.000
14.20000 1122.000
14.22000 977.000
14.24000 772.000
14.26000 683.000
14.28000 606.000
14.30000 553.000
14.32000 523.000
14.34000 459.000
14.36000 484.000
14.38000 446.000
14.40000 379.000
14.42000 389.000
14.44000 374.000
14.46000 381.000
14.48000 324.000
14.50000 346.000
14.52000 300.000
14.54000 294.000
14.56000 316.000
14.58000 290.000
14.60000 301.000
14.62000 323.000
14.64000 283.000
14.66000 302.000
14.68000 324.000
14.70000 273.000
14.72000 271.000
14.74000 313.000
14.76000 311.000
14.78000 299.000
14.80000 268.000
14.82000 255.000
14.84000 283.000
14.86000 274.000
14.88000 267.000
14.90000 264.000
14.92000 291.000
14.94000 278.000
14.96000 280.000
14.98000 291.000
15.00000 256.000
15.02000 281.000
15.04000 294.000
15.06000 263.000
15.08000 259.000
15.10000 276.000
15.12000 257.000
15.14000 275.000
15.16000 292.000
15.18000 231.000
15.20000 265.000
15.22000 229.000
15.24000 260.000
15.26000 253.000
15.28000 288.000
15.30000 234.000
15.32000 289.000
15.34000 254.000
15.36000 296.000
15.38000 244.000
15.40000 269.000
15.42000 255.000
15.44000 255.000
15.46000 261.000
15.48000 233.000
15.50000 233.000
15.52000 271.000
15.54000 234.000
15.56000 246.000
15.58000 241.000
15.60000 241.000
15.62000 243.000
15.64000 232.000
15.66000 224.000
15.68000 226.000
15.70000 254.000
15.72000 227.000
15.74000 237.000
15.76000 223.000
15.78000 264.000
15.80000 260.000
15.82000 218.000
15.84000 212.000
15.86000 238.000
15.88000 227.000
15.90000 243.000
15.92000 249.000
15.94000 208.000
15.96000 238.000
15.98000 245.000
16.00000 255.000
16.02000 245.000
16.04000 249.000
16.06000 235.000
16.08000 237.000
16.10000 248.000
16.12000 259.000
16.14000 223.000
16.16000 230.000
16.18000 241.000
16.20000 250.000
16.22000 218.000
16.24000 237.000
16.26000 240.000
16.28000 223.000
16.30000 245.000
16.32000 253.000
16.34000 221.000
16.36000 252.000
16.38000 267.000
16.40000 230.000
16.42000 230.000
16.44000 227.000
16.46000 231.000
16.48000 256.000
16.50000 200.000
16.52000 217.000
16.54000 231.000
16.56000 235.000
16.58000 219.000
16.60000 234.000
16.62000 244.000
16.64000 214.000
16.66000 243.000
16.68000 243.000
16.70000 216.000
16.72000 247.000
16.74000 209.000
16.76000 237.000
16.78000 214.000
16.80000 231.000
16.82000 218.000
16.84000 221.000
16.86000 217.000
16.88000 216.000
16.90000 223.000
16.92000 233.000
16.94000 229.000
16.96000 231.000
16.98000 200.000
17.00000 210.000
17.02000 224.000
17.04000 211.000
17.06000 205.000
17.08000 219.000
17.10000 231.000
17.12000 237.000
17.14000 236.000
17.16000 247.000
17.18000 250.000
17.20000 215.000
17.22000 231.000
17.24000 216.000
17.26000 218.000
17.28000 232.000
17.30000 254.000
17.32000 220.000
17.34000 187.000
17.36000 229.000
17.38000 243.000
17.40000 223.000
17.42000 222.000
17.44000 240.000
17.46000 234.000
17.48000 211.000
17.50000 221.000
17.52000 207.000
17.54000 202.000
17.56000 225.000
17.58000 257.000
17.60000 238.000
17.62000 208.000
17.64000 209.000
17.66000 219.000
17.68000 215.000
17.70000 240.000
17.72000 221.000
17.74000 221.000
17.76000 235.000
17.78000 201.000
17.80000 225.000
17.82000 226.000
17.84000 230.000
17.86000 213.000
17.88000 216.000
17.90000 220.000
17.92000 211.000
17.94000 214.000
17.96000 237.000
17.98000 236.000
18.00000 211.000
18.02000 237.000
18.04000 205.000
18.06000 229.000
18.08000 240.000
18.10000 227.000
18.12000 221.000
18.14000 217.000
18.16000 213.000
18.18000 236.000
18.20000 217.000
18.22000 203.000
18.24000 240.000
18.26000 227.000
18.28000 216.000
18.30000 223.000
18.32000 210.000
18.34000 200.000
18.36000 215.000
18.38000 223.000
18.40000 218.000
18.42000 238.000
18.44000 213.000
18.46000 248.000
18.48000 203.000
18.50000 236.000
18.52000 219.000
18.54000 218.000
18.56000 197.000
18.58000 199.000
18.60000 222.000
18.62000 218.000
18.64000 234.000
18.66000 203.000
18.68000 217.000
18.70000 206.000
18.72000 199.000
18.74000 223.000
18.76000 225.000
18.78000 193.000
18.80000 224.000
18.82000 214.000
18.84000 214.000
18.86000 200.000
18.88000 229.000
18.90000 234.000
18.92000 225.000
18.94000 216.000
18.96000 213.000
18.98000 225.000
19.00000 243.000
19.02000 222.000
19.04000 228.000
19.06000 221.000
19.08000 213.000
19.10000 211.000
19.12000 241.000
19.14000 209.000
19.16000 232.000
19.18000 242.000
19.20000 224.000
19.22000 229.000
19.24000 257.000
19.26000 228.000
19.28000 229.000
19.30000 241.000
19.32000 266.000
19.34000 218.000
19.36000 237.000
19.38000 235.000
19.40000 252.000
19.42000 267.000
19.44000 255.000
19.46000 244.000
19.48000 253.000
19.50000 243.000
19.52000 237.000
19.54000 283.000
19.56000 274.000
19.58000 283.000
19.60000 266.000
19.62000 277.000
19.64000 299.000
19.66000 283.000
19.68000 300.000
19.70000 346.000
19.72000 350.000
19.74000 412.000
19.76000 419.000
19.78000 419.000
19.80000 489.000
19.82000 540.000
19.84000 552.000
19.86000 668.000
19.88000 700.000
19.90000 787.000
19.92000 838.000
19.94000 899.000
19.96000 917.000
19.98000 881.000
20.00000 738.000
20.02000 664.000
20.04000 613.000
20.06000 481.000
20.08000 441.000
20.10000 362.000
20.12000 347.000
20.14000 289.000
20.16000 287.000
20.18000 284.000
20.20000 237.000
20.22000 283.000
20.24000 228.000
20.26000 242.000
20.28000 223.000
20.30000 248.000
20.32000 216.000
20.34000 221.000
20.36000 231.000
20.38000 208.000
20.40000 233.000
20.42000 241.000
20.44000 226.000
20.46000 227.000
20.48000 214.000
20.50000 212.000
20.52000 225.000
20.54000 199.000
20.56000 227.000
20.58000 241.000
20.60000 223.000
20.62000 258.000
20.64000 220.000
20.66000 238.000
20.68000 231.000
20.70000 226.000
20.72000 219.000
20.74000 247.000
20.76000 233.000
20.78000 224.000
20.80000 218.000
20.82000 233.000
20.84000 205.000
20.86000 229.000
20.88000 216.000
20.90000 212.000
20.92000 249.000
20.94000 228.000
20.96000 227.000
20.98000 227.000
21.00000 207.000
21.02000 219.000
21.04000 207.000
21.06000 238.000
21.08000 241.000
21.10000 204.000
21.12000 190.000
21.14000 224.000
21.16000 228.000
21.18000 246.000
21.20000 210.000
21.22000 209.000
21.24000 202.000
21.26000 225.000
21.28000 219.000
21.30000 225.000
21.32000 236.000
21.34000 197.000
21.36000 235.000
21.38000 216.000
21.40000 218.000
21.42000 230.000
21.44000 207.000
21.46000 220.000
21.48000 228.000
21.50000 230.000
21.52000 241.000
21.54000 234.000
21.56000 243.000
21.58000 211.000
21.60000 207.000
21.62000 209.000
21.64000 221.000
21.66000 258.000
21.68000 256.000
21.70000 258.000
21.72000 233.000
21.74000 241.000
21.76000 214.000
21.78000 245.000
21.80000 259.000
21.82000 247.000
21.84000 252.000
21.86000 216.000
21.88000 243.000
21.90000 248.000
21.92000 240.000
21.94000 226.000
21.96000 250.000
21.98000 238.000
22.00000 240.000
22.02000 255.000
22.04000 231.000
22.06000 243.000
22.08000 226.000
22.10000 225.000
22.12000 247.000
22.14000 259.000
22.16000 256.000
22.18000 249.000
22.20000 216.000
22.22000 254.000
22.24000 214.000
22.26000 245.000
22.28000 243.000
22.30000 215.000
22.32000 221.000
22.34000 245.000
22.36000 233.000
22.38000 249.000
22.40000 252.000
22.42000 244.000
22.44000 253.000
22.46000 222.000
22.48000 236.000
22.50000 285.000
22.52000 233.000
22.54000 211.000
22.56000 247.000
22.58000 247.000
22.60000 268.000
22.62000 241.000
22.64000 280.000
22.66000 262.000
22.68000 256.000
22.70000 283.000
22.72000 250.000
22.74000 279.000
22.76000 233.000
22.78000 274.000
22.80000 264.000
22.82000 240.000
22.84000 280.000
22.86000 266.000
22.88000 261.000
22.90000 279.000
22.92000 301.000
22.94000 281.000
22.96000 281.000
22.98000 267.000
23.00000 257.000
23.02000 250.000
23.04000 255.000
23.06000 264.000
23.08000 247.000
23.10000 251.000
23.12000 248.000
23.14000 256.000
23.16000 270.000
23.18000 245.000
23.20000 247.000
23.22000 240.000
23.24000 245.000
23.26000 243.000
23.28000 229.000
23.30000 252.000
23.32000 264.000
23.34000 270.000
23.36000 262.000
23.38000 236.000
23.40000 259.000
23.42000 249.000
23.44000 255.000
23.46000 245.000
23.48000 269.000
23.50000 250.000
23.52000 257.000
23.54000 254.000
23.56000 250.000
23.58000 269.000
23.60000 252.000
23.62000 278.000
23.64000 234.000
23.66000 286.000
23.68000 280.000
23.70000 258.000
23.72000 239.000
23.74000 268.000
23.76000 262.000
23.78000 251.000
23.80000 270.000
23.82000 283.000
23.84000 260.000
23.86000 271.000
23.88000 271.000
23.90000 263.000
23.92000 276.000
23.94000 303.000
23.96000 295.000
23.98000 304.000
24.00000 308.000
24.02000 337.000
24.04000 311.000
24.06000 292.000
24.08000 283.000
24.10000 345.000
24.12000 353.000
24.14000 308.000
24.16000 334.000
24.18000 391.000
24.20000 399.000
24.22000 402.000
24.24000 440.000
24.26000 467.000
24.28000 472.000
24.30000 492.000
24.32000 577.000
24.34000 606.000
24.36000 656.000
24.38000 724.000
24.40000 792.000
24.42000 940.000
24.44000 965.000
24.46000 1084.000
24.48000 1100.000
24.50000 1107.000
24.52000 1067.000
24.54000 927.000
24.56000 923.000
24.58000 728.000
24.60000 604.000
24.62000 542.000
24.64000 485.000
24.66000 478.000
24.68000 423.000
24.70000 405.000
24.72000 361.000
24.74000 366.000
24.76000 329.000
24.78000 308.000
24.80000 307.000
24.82000 303.000
24.84000 290.000
24.86000 315.000
24.88000 262.000
24.90000 321.000
24.92000 305.000
24.94000 307.000
24.96000 292.000
24.98000 305.000
25.00000 309.000
25.02000 253.000
25.04000 306.000
25.06000 259.000
25.08000 300.000
25.10000 302.000
25.12000 303.000
25.14000 244.000
25.16000 255.000
25.18000 239.000
25.20000 293.000
25.22000 276.000
25.24000 262.000
25.26000 251.000
25.28000 274.000
25.30000 233.000
25.32000 291.000
25.34000 286.000
25.36000 286.000
25.38000 303.000
25.40000 300.000
25.42000 311.000
25.44000 331.000
25.46000 311.000
25.48000 333.000
25.50000 311.000
25.52000 339.000
25.54000 314.000
25.56000 339.000
25.58000 326.000
25.60000 348.000
25.62000 297.000
25.64000 316.000
25.66000 272.000
25.68000 282.000
25.70000 293.000
25.72000 308.000
25.74000 280.000
25.76000 291.000
25.78000 279.000
25.80000 273.000
25.82000 335.000
25.84000 282.000
25.86000 273.000
25.88000 253.000
25.90000 300.000
25.92000 272.000
25.94000 272.000
25.96000 254.000
25.98000 253.000
26.00000 268.000
26.02000 275.000
26.04000 309.000
26.06000 292.000
26.08000 270.000
26.10000 262.000
26.12000 287.000
26.14000 257.000
26.16000 270.000
26.18000 265.000
26.20000 269.000
26.22000 291.000
26.24000 285.000
26.26000 296.000
26.28000 279.000
26.30000 284.000
26.32000 246.000
26.34000 259.000
26.36000 285.000
26.38000 275.000
26.40000 300.000
26.42000 263.000
26.44000 263.000
26.46000 267.000
26.48000 270.000
26.50000 250.000
26.52000 287.000
26.54000 325.000
26.56000 256.000
26.58000 248.000
26.60000 285.000
26.62000 297.000
26.64000 276.000
26.66000 293.000
26.68000 282.000
26.70000 264.000
26.72000 311.000
26.74000 311.000
26.76000 335.000
26.78000 272.000
26.80000 273.000
26.82000 287.000
26.84000 301.000
26.86000 274.000
26.88000 310.000
26.90000 287.000
26.92000 307.000
26.94000 301.000
26.96000 294.000
26.98000 282.000
27.00000 267.000
27.02000 309.000
27.04000 306.000
27.06000 335.000
27.08000 273.000
27.10000 346.000
27.12000 329.000
27.14000 323.000
27.16000 317.000
27.18000 279.000
27.20000 296.000
27.22000 280.000
27.24000 294.000
27.26000 295.000
27.28000 305.000
27.30000 297.000
27.32000 292.000
27.34000 295.000
27.36000 286.000
27.38000 261.000
27.40000 290.000
27.42000 326.000
27.44000 309.000
27.46000 298.000
27.48000 354.000
27.50000 314.000
27.52000 314.000
27.54000 338.000
27.56000 344.000
27.58000 330.000
27.60000 348.000
27.62000 365.000
27.64000 375.000
27.66000 367.000
27.68000 396.000
27.70000 405.000
27.72000 349.000
27.74000 378.000
27.76000 400.000
27.78000 369.000
27.80000 379.000
27.82000 390.000
27.84000 374.000
27.86000 383.000
27.88000 404.000
27.90000 435.000
27.92000 427.000
27.94000 403.000
27.96000 505.000
27.98000 538.000
28.00000 507.000
28.02000 587.000
28.04000 583.000
28.06000 717.000
28.08000 689.000
28.10000 771.000
28.12000 842.000
28.14000 972.000
28.16000 1029.000
28.18000 1155.000
28.20000 1284.000
28.22000 1353.000
28.24000 1731.000
28.26000 1789.000
28.28000 2118.000
28.30000 2320.000
28.32000 2401.000
28.34000 2653.000
28.36000 2514.000
28.38000 2279.000
28.40000 2158.000
28.42000 1950.000
28.44000 1693.000
28.46000 1438.000
28.48000 1220.000
28.50000 1078.000
28.52000 890.000
28.54000 784.000
28.56000 654.000
28.58000 611.000
28.60000 519.000
28.62000 511.000
28.64000 484.000
28.66000 402.000
28.68000 367.000
28.70000 369.000
28.72000 414.000
28.74000 343.000
28.76000 352.000
28.78000 362.000
28.80000 347.000
28.82000 374.000
28.84000 320.000
28.86000 341.000
28.88000 285.000
28.90000 304.000
28.92000 321.000
28.94000 336.000
28.96000 330.000
28.98000 308.000
29.00000 279.000
29.02000 294.000
29.04000 288.000
29.06000 318.000
29.08000 308.000
29.10000 310.000
29.12000 286.000
29.14000 301.000
29.16000 295.000
29.18000 268.000
29.20000 273.000
29.22000 265.000
29.24000 273.000
29.26000 257.000
29.28000 277.000
29.30000 265.000
29.32000 297.000
29.34000 262.000
29.36000 258.000
29.38000 253.000
29.40000 275.000
29.42000 251.000
29.44000 243.000
29.46000 276.000
29.48000 261.000
29.50000 284.000
29.52000 276.000
29.54000 249.000
29.56000 249.000
29.58000 282.000
29.60000 260.000
29.62000 252.000
29.64000 254.000
29.66000 227.000
29.68000 248.000
29.70000 251.000
29.72000 289.000
29.74000 258.000
29.76000 255.000
29.78000 264.000
29.80000 219.000
29.82000 240.000
29.84000 240.000
29.86000 230.000
29.88000 245.000
29.90000 259.000
29.92000 259.000
29.94000 237.000
29.96000 260.000
29.98000 224.000
30.00000 227.000
30.02000 239.000
30.04000 261.000
30.06000 255.000
30.08000 219.000
30.10000 257.000
30.12000 284.000
30.14000 247.000
30.16000 243.000
30.18000 259.000
30.20000 248.000
30.22000 276.000
30.24000 268.000
30.26000 250.000
30.28000 269.000
30.30000 277.000
30.32000 277.000
30.34000 265.000
30.36000 286.000
30.38000 284.000
30.40000 257.000
30.42000 270.000
30.44000 280.000
30.46000 273.000
30.48000 222.000
30.50000 261.000
30.52000 248.000
30.54000 255.000
30.56000 239.000
30.58000 255.000
30.60000 245.000
30.62000 247.000
30.64000 270.000
30.66000 262.000
30.68000 263.000
30.70000 282.000
30.72000 263.000
30.74000 280.000
30.76000 312.000
30.78000 254.000
30.80000 263.000
30.82000 283.000
30.84000 297.000
30.86000 295.000
30.88000 284.000
30.90000 289.000
30.92000 274.000
30.94000 257.000
30.96000 285.000
30.98000 280.000
31.00000 270.000
31.02000 332.000
31.04000 340.000
31.06000 323.000
31.08000 326.000
31.10000 329.000
31.12000 323.000
31.14000 315.000
31.16000 299.000
31.18000 321.000
31.20000 322.000
31.22000 348.000
31.24000 360.000
31.26000 341.000
31.28000 328.000
31.30000 375.000
31.32000 393.000
31.34000 417.000
31.36000 394.000
31.38000 427.000
31.40000 444.000
31.42000 480.000
31.44000 563.000
31.46000 572.000
31.48000 624.000
31.50000 707.000
31.52000 774.000
31.54000 843.000
31.56000 933.000
31.58000 1072.000
31.60000 1264.000
31.62000 1419.000
31.64000 1599.000
31.66000 1856.000
31.68000 2048.000
31.70000 2414.000
31.72000 2676.000
31.74000 2811.000
31.76000 3065.000
31.78000 3001.000
31.80000 2779.000
31.82000 2597.000
31.84000 2407.000
31.86000 2037.000
31.88000 1800.000
31.90000 1450.000
31.92000 1204.000
31.94000 966.000
31.96000 842.000
31.98000 730.000
32.00000 672.000
32.02000 589.000
32.04000 514.000
32.06000 471.000
32.08000 397.000
32.10000 385.000
32.12000 352.000
32.14000 348.000
32.16000 323.000
32.18000 331.000
32.20000 315.000
32.22000 293.000
32.24000 284.000
32.26000 259.000
32.28000 297.000
32.30000 273.000
32.32000 251.000
32.34000 252.000
32.36000 248.000
32.38000 238.000
32.40000 218.000
32.42000 249.000
32.44000 240.000
32.46000 249.000
32.48000 229.000
32.50000 226.000
32.52000 241.000
32.54000 231.000
32.56000 225.000
32.58000 275.000
32.60000 222.000
32.62000 247.000
32.64000 215.000
32.66000 243.000
32.68000 224.000
32.70000 232.000
32.72000 228.000
32.74000 228.000
32.76000 217.000
32.78000 209.000
32.80000 222.000
32.82000 240.000
32.84000 227.000
32.86000 242.000
32.88000 213.000
32.90000 247.000
32.92000 205.000
32.94000 205.000
32.96000 215.000
32.98000 200.000
33.00000 195.000
33.02000 236.000
33.04000 215.000
33.06000 222.000
33.08000 187.000
33.10000 213.000
33.12000 205.000
33.14000 230.000
33.16000 174.000
33.18000 214.000
33.20000 215.000
33.22000 209.000
33.24000 199.000
33.26000 207.000
33.28000 211.000
33.30000 224.000
33.32000 204.000
33.34000 217.000
33.36000 222.000
33.38000 189.000
33.40000 195.000
33.42000 243.000
33.44000 212.000
33.46000 215.000
33.48000 178.000
33.50000 189.000
33.52000 229.000
33.54000 219.000
33.56000 192.000
33.58000 205.000
33.60000 200.000
33.62000 210.000
33.64000 206.000
33.66000 197.000
33.68000 187.000
33.70000 218.000
33.72000 201.000
33.74000 207.000
33.76000 211.000
33.78000 196.000
33.80000 195.000
33.82000 198.000
33.84000 211.000
33.86000 231.000
33.88000 239.000
33.90000 227.000
33.92000 218.000
33.94000 200.000
33.96000 206.000
33.98000 209.000
34.00000 216.000
34.02000 205.000
34.04000 217.000
34.06000 223.000
34.08000 206.000
34.10000 222.000
34.12000 204.000
34.14000 202.000
34.16000 222.000
34.18000 192.000
34.20000 204.000
34.22000 215.000
34.24000 211.000
34.26000 201.000
34.28000 177.000
34.30000 191.000
34.32000 215.000
34.34000 168.000
34.36000 193.000
34.38000 170.000
34.40000 195.000
34.42000 200.000
34.44000 174.000
34.46000 182.000
34.48000 197.000
34.50000 200.000
34.52000 186.000
34.54000 192.000
34.56000 213.000
34.58000 231.000
34.60000 213.000
34.62000 225.000
34.64000 261.000
34.66000 244.000
34.68000 256.000
34.70000 288.000
34.72000 272.000
34.74000 322.000
34.76000 310.000
34.78000 360.000
34.80000 360.000
34.82000 423.000
34.84000 496.000
34.86000 470.000
34.88000 484.000
34.90000 500.000
34.92000 515.000
34.94000 519.000
34.96000 469.000
34.98000 483.000
35.00000 449.000
35.02000 393.000
35.04000 351.000
35.06000 325.000
35.08000 292.000
35.10000 273.000
35.12000 268.000
35.14000 210.000
35.16000 231.000
35.18000 206.000
35.20000 209.000
35.22000 200.000
35.24000 223.000
35.26000 202.000
35.28000 200.000
35.30000 210.000
35.32000 201.000
35.34000 206.000
35.36000 197.000
35.38000 185.000
35.40000 187.000
35.42000 180.000
35.44000 183.000
35.46000 199.000
35.48000 167.000
35.50000 178.000
35.52000 193.000
35.54000 204.000
35.56000 184.000
35.58000 185.000
35.60000 184.000
35.62000 201.000
35.64000 163.000
35.66000 189.000
35.68000 182.000
35.70000 171.000
35.72000 182.000
35.74000 171.000
35.76000 179.000
35.78000 203.000
35.80000 180.000
35.82000 200.000
35.84000 166.000
35.86000 169.000
35.88000 177.000
35.90000 186.000
35.92000 184.000
35.94000 169.000
35.96000 197.000
35.98000 167.000
36.00000 171.000
36.02000 182.000
36.04000 199.000
36.06000 186.000
36.08000 168.000
36.10000 178.000
36.12000 172.000
36.14000 182.000
36.16000 159.000
36.18000 182.000
36.20000 186.000
36.22000 178.000
36.24000 173.000
36.26000 153.000
36.28000 157.000
36.30000 174.000
36.32000 183.000
36.34000 183.000
36.36000 165.000
36.38000 182.000
36.40000 206.000
36.42000 183.000
36.44000 182.000
36.46000 176.000
36.48000 180.000
36.50000 159.000
36.52000 179.000
36.54000 188.000
36.56000 201.000
36.58000 170.000
36.60000 168.000
36.62000 175.000
36.64000 181.000
36.66000 163.000
36.68000 152.000
36.70000 170.000
36.72000 162.000
36.74000 188.000
36.76000 166.000
36.78000 162.000
36.80000 157.000
36.82000 177.000
36.84000 200.000
36.86000 181.000
36.88000 183.000
36.90000 164.000
36.92000 150.000
36.94000 190.000
36.96000 159.000
36.98000 160.000
37.00000 183.000
37.02000 176.000
37.04000 158.000
37.06000 161.000
37.08000 194.000
37.10000 164.000
37.12000 201.000
37.14000 180.000
37.16000 174.000
37.18000 187.000
37.20000 166.000
37.22000 175.000
37.24000 172.000
37.26000 167.000
37.28000 145.000
37.30000 154.000
37.32000 159.000
37.34000 167.000
37.36000 163.000
37.38000 174.000
37.40000 154.000
37.42000 185.000
37.44000 183.000
37.46000 168.000
37.48000 171.000
37.50000 166.000
37.52000 195.000
37.54000 190.000
37.56000 180.000
37.58000 176.000
37.60000 178.000
37.62000 171.000
37.64000 194.000
37.66000 191.000
37.68000 184.000
37.70000 193.000
37.72000 181.000
37.74000 194.000
37.76000 174.000
37.78000 133.000
37.80000 172.000
37.82000 180.000
37.84000 194.000
37.86000 163.000
37.88000 187.000
37.90000 148.000
37.92000 171.000
37.94000 165.000
37.96000 158.000
37.98000 167.000
38.00000 195.000
38.02000 170.000
38.04000 173.000
38.06000 179.000
38.08000 189.000
38.10000 192.000
38.12000 176.000
38.14000 185.000
38.16000 168.000
38.18000 178.000
38.20000 158.000
38.22000 197.000
38.24000 175.000
38.26000 178.000
38.28000 198.000
38.30000 164.000
38.32000 185.000
38.34000 192.000
38.36000 189.000
38.38000 197.000
38.40000 191.000
38.42000 180.000
38.44000 177.000
38.46000 214.000
38.48000 208.000
38.50000 228.000
38.52000 239.000
38.54000 229.000
38.56000 223.000
38.58000 240.000
38.60000 258.000
38.62000 263.000
38.64000 246.000
38.66000 233.000
38.68000 268.000
38.70000 247.000
38.72000 247.000
38.74000 233.000
38.76000 232.000
38.78000 217.000
38.80000 234.000
38.82000 239.000
38.84000 220.000
38.86000 205.000
38.88000 228.000
38.90000 190.000
38.92000 178.000
38.94000 198.000
38.96000 180.000
38.98000 218.000
39.00000 187.000
39.02000 179.000
39.04000 203.000
39.06000 183.000
39.08000 204.000
39.10000 207.000
39.12000 192.000
39.14000 222.000
39.16000 219.000
39.18000 189.000
39.20000 198.000
39.22000 183.000
39.24000 189.000
39.26000 196.000
39.28000 219.000
39.30000 208.000
39.32000 210.000
39.34000 217.000
39.36000 182.000
39.38000 203.000
39.40000 225.000
39.42000 249.000
39.44000 273.000
39.46000 230.000
39.48000 293.000
39.50000 279.000
39.52000 299.000
39.54000 322.000
39.56000 309.000
39.58000 309.000
39.60000 293.000
39.62000 272.000
39.64000 246.000
39.66000 258.000
39.68000 294.000
39.70000 251.000
39.72000 213.000
39.74000 224.000
39.76000 206.000
39.78000 204.000
39.80000 226.000
39.82000 221.000
39.84000 219.000
39.86000 227.000
39.88000 221.000
39.90000 225.000
39.92000 187.000
39.94000 229.000
39.96000 235.000
39.98000 196.000
40.00000 223.000
40.02000 224.000
40.04000 226.000
40.06000 215.000
40.08000 211.000
40.10000 237.000
40.12000 224.000
40.14000 221.000
40.16000 272.000
40.18000 266.000
40.20000 300.000
40.22000 325.000
40.24000 293.000
40.26000 346.000
40.28000 365.000
40.30000 456.000
40.32000 452.000
40.34000 551.000
40.36000 661.000
40.38000 718.000
40.40000 878.000
40.42000 1033.000
40.44000 1177.000
40.46000 1386.000
40.48000 1484.000
40.50000 1674.000
40.52000 1605.000
40.54000 1634.000
40.56000 1540.000
40.58000 1446.000
40.60000 1384.000
40.62000 1251.000
40.64000 1087.000
40.66000 1025.000
40.68000 853.000
40.70000 709.000
40.72000 621.000
40.74000 544.000
40.76000 521.000
40.78000 413.000
40.80000 429.000
40.82000 344.000
40.84000 308.000
40.86000 262.000
40.88000 277.000
40.90000 270.000
40.92000 270.000
40.94000 267.000
40.96000 272.000
40.98000 237.000
41.00000 236.000
41.02000 210.000
41.04000 225.000
41.06000 250.000
41.08000 240.000
41.10000 215.000
41.12000 197.000
41.14000 226.000
41.16000 247.000
41.18000 235.000
41.20000 245.000
41.22000 250.000
41.24000 242.000
41.26000 243.000
41.28000 230.000
41.30000 213.000
41.32000 234.000
41.34000 198.000
41.36000 222.000
41.38000 198.000
41.40000 205.000
41.42000 252.000
41.44000 205.000
41.46000 211.000
41.48000 205.000
41.50000 237.000
41.52000 213.000
41.54000 198.000
41.56000 227.000
41.58000 197.000
41.60000 242.000
41.62000 233.000
41.64000 230.000
41.66000 224.000
41.68000 214.000
41.70000 238.000
41.72000 232.000
41.74000 244.000
41.76000 244.000
41.78000 235.000
41.80000 195.000
41.82000 189.000
41.84000 211.000
41.86000 203.000
41.88000 223.000
41.90000 218.000
41.92000 210.000
41.94000 194.000
41.96000 207.000
41.98000 205.000
42.00000 222.000
42.02000 236.000
42.04000 206.000
42.06000 238.000
42.08000 237.000
42.10000 199.000
42.12000 188.000
42.14000 209.000
42.16000 191.000
42.18000 205.000
42.20000 188.000
42.22000 192.000
42.24000 185.000
42.26000 205.000
42.28000 190.000
42.30000 196.000
42.32000 205.000
42.34000 200.000
42.36000 219.000
42.38000 208.000
42.40000 222.000
42.42000 204.000
42.44000 217.000
42.46000 230.000
42.48000 195.000
42.50000 210.000
42.52000 205.000
42.54000 243.000
42.56000 216.000
42.58000 201.000
42.60000 238.000
42.62000 207.000
42.64000 250.000
42.66000 215.000
42.68000 252.000
42.70000 249.000
42.72000 263.000
42.74000 282.000
42.76000 272.000
42.78000 293.000
42.80000 341.000
42.82000 347.000
42.84000 436.000
42.86000 422.000
42.88000 517.000
42.90000 561.000
42.92000 615.000
42.94000 699.000
42.96000 872.000
42.98000 941.000
43.00000 1095.000
43.02000 1260.000
43.04000 1407.000
43.06000 1495.000
43.08000 1574.000
43.10000 1599.000
43.12000 1529.000
43.14000 1392.000
43.16000 1280.000
43.18000 1221.000
43.20000 1129.000
43.22000 991.000
43.24000 897.000
43.26000 739.000
43.28000 645.000
43.30000 564.000
43.32000 482.000
43.34000 435.000
43.36000 360.000
43.38000 351.000
43.40000 355.000
43.42000 286.000
43.44000 265.000
43.46000 264.000
43.48000 253.000
43.50000 252.000
43.52000 241.000
43.54000 245.000
43.56000 238.000
43.58000 243.000
43.60000 221.000
43.62000 229.000
43.64000 202.000
43.66000 201.000
43.68000 184.000
43.70000 201.000
43.72000 202.000
43.74000 213.000
43.76000 194.000
43.78000 182.000
43.80000 197.000
43.82000 175.000
43.84000 196.000
43.86000 214.000
43.88000 204.000
43.90000 165.000
43.92000 189.000
43.94000 180.000
43.96000 185.000
43.98000 190.000
44.00000 175.000
44.02000 180.000
44.04000 215.000
44.06000 165.000
44.08000 183.000
44.10000 189.000
44.12000 187.000
44.14000 168.000
44.16000 152.000
44.18000 185.000
44.20000 172.000
44.22000 179.000
44.24000 182.000
44.26000 166.000
44.28000 195.000
44.30000 224.000
44.32000 184.000
44.34000 195.000
44.36000 193.000
44.38000 188.000
44.40000 191.000
44.42000 192.000
44.44000 204.000
44.46000 177.000
44.48000 202.000
44.50000 168.000
44.52000 158.000
44.54000 139.000
44.56000 175.000
44.58000 186.000
44.60000 163.000
44.62000 183.000
44.64000 180.000
44.66000 177.000
44.68000 167.000
44.70000 171.000
44.72000 164.000
44.74000 158.000
44.76000 152.000
44.78000 164.000
44.80000 184.000
44.82000 179.000
44.84000 171.000
44.86000 180.000
44.88000 173.000
44.90000 155.000
44.92000 168.000
44.94000 166.000
44.96000 163.000
44.98000 173.000
45.00000 162.000
45.02000 164.000
45.04000 164.000
45.06000 162.000
45.08000 163.000
45.10000 161.000
45.12000 154.000
45.14000 166.000
45.16000 149.000
45.18000 165.000
45.20000 163.000
45.22000 159.000
45.24000 183.000
45.26000 163.000
45.28000 167.000
45.30000 161.000
45.32000 177.000
45.34000 160.000
45.36000 181.000
45.38000 207.000
45.40000 188.000
45.42000 192.000
45.44000 200.000
45.46000 218.000
45.48000 216.000
45.50000 206.000
45.52000 231.000
45.54000 206.000
45.56000 204.000
45.58000 222.000
45.60000 192.000
45.62000 213.000
45.64000 197.000
45.66000 194.000
45.68000 174.000
45.70000 164.000
45.72000 190.000
45.74000 168.000
45.76000 151.000
45.78000 159.000
45.80000 184.000
45.82000 165.000
45.84000 193.000
45.86000 163.000
45.88000 159.000
45.90000 163.000
45.92000 145.000
45.94000 167.000
45.96000 148.000
45.98000 166.000
46.00000 153.000
46.02000 174.000
46.04000 157.000
46.06000 150.000
46.08000 156.000
46.10000 151.000
46.12000 184.000
46.14000 175.000
46.16000 170.000
46.18000 163.000
46.20000 156.000
46.22000 161.000
46.24000 165.000
46.26000 161.000
46.28000 173.000
46.30000 165.000
46.32000 164.000
46.34000 155.000
46.36000 158.000
46.38000 147.000
46.40000 155.000
46.42000 143.000
46.44000 158.000
46.46000 152.000
46.48000 142.000
46.50000 148.000
46.52000 140.000
46.54000 157.000
46.56000 149.000
46.58000 157.000
46.60000 133.000
46.62000 161.000
46.64000 161.000
46.66000 153.000
46.68000 135.000
46.70000 144.000
46.72000 164.000
46.74000 141.000
46.76000 134.000
46.78000 112.000
46.80000 145.000
46.82000 172.000
46.84000 141.000
46.86000 145.000
46.88000 145.000
46.90000 151.000
46.92000 151.000
46.94000 157.000
46.96000 154.000
46.98000 141.000
47.00000 139.000
47.02000 148.000
47.04000 155.000
47.06000 157.000
47.08000 148.000
47.10000 137.000
47.12000 142.000
47.14000 150.000
47.16000 143.000
47.18000 148.000
47.20000 132.000
47.22000 144.000
47.24000 140.000
47.26000 154.000
47.28000 162.000
47.30000 136.000
47.32000 145.000
47.34000 130.000
47.36000 133.000
47.38000 138.000
47.40000 132.000
47.42000 149.000
47.44000 142.000
47.46000 140.000
47.48000 153.000
47.50000 128.000
47.52000 123.000
47.54000 132.000
47.56000 146.000
47.58000 129.000
47.60000 168.000
47.62000 140.000
47.64000 142.000
47.66000 151.000
47.68000 129.000
47.70000 170.000
47.72000 133.000
47.74000 144.000
47.76000 161.000
47.78000 193.000
47.80000 179.000
47.82000 161.000
47.84000 186.000
47.86000 186.000
47.88000 166.000
47.90000 178.000
47.92000 197.000
47.94000 188.000
47.96000 164.000
47.98000 168.000
48.00000 167.000
48.02000 180.000
48.04000 151.000
48.06000 208.000
48.08000 166.000
48.10000 169.000
48.12000 143.000
48.14000 170.000
48.16000 140.000
48.18000 168.000
48.20000 141.000
48.22000 152.000
48.24000 155.000
48.26000 154.000
48.28000 137.000
48.30000 143.000
48.32000 138.000
48.34000 134.000
48.36000 128.000
48.38000 126.000
48.40000 144.000
48.42000 150.000
48.44000 160.000
48.46000 143.000
48.48000 138.000
48.50000 146.000
48.52000 142.000
48.54000 133.000
48.56000 139.000
48.58000 113.000
48.60000 150.000
48.62000 130.000
48.64000 126.000
48.66000 140.000
48.68000 136.000
48.70000 143.000
48.72000 151.000
48.74000 134.000
48.76000 128.000
48.78000 126.000
48.80000 135.000
48.82000 161.000
48.84000 154.000
48.86000 126.000
48.88000 147.000
48.90000 125.000
48.92000 138.000
48.94000 130.000
48.96000 144.000
48.98000 154.000
49.00000 144.000
49.02000 166.000
49.04000 131.000
49.06000 117.000
49.08000 136.000
49.10000 141.000
49.12000 130.000
49.14000 150.000
49.16000 134.000
49.18000 151.000
49.20000 139.000
49.22000 160.000
49.24000 129.000
49.26000 152.000
49.28000 143.000
49.30000 140.000
49.32000 130.000
49.34000 155.000
49.36000 151.000
49.38000 135.000
49.40000 160.000
49.42000 127.000
49.44000 151.000
49.46000 156.000
49.48000 142.000
49.50000 169.000
49.52000 126.000
49.54000 136.000
49.56000 139.000
49.58000 136.000
49.60000 136.000
49.62000 156.000
49.64000 163.000
49.66000 146.000
49.68000 145.000
49.70000 146.000
49.72000 171.000
49.74000 142.000
49.76000 162.000
49.78000 162.000
49.80000 161.000
49.82000 158.000
49.84000 155.000
49.86000 184.000
49.88000 168.000
49.90000 189.000
49.92000 163.000
49.94000 222.000
49.96000 216.000
49.98000 241.000
50.00000 243.000
50.02000 279.000
50.04000 348.000
50.06000 358.000
50.08000 410.000
50.10000 454.000
50.12000 512.000
50.14000 524.000
50.16000 583.000
50.18000 519.000
50.20000 529.000
50.22000 500.000
50.24000 464.000
50.26000 437.000
50.28000 417.000
50.30000 440.000
50.32000 403.000
50.34000 340.000
50.36000 309.000
50.38000 275.000
50.40000 232.000
50.42000 236.000
50.44000 205.000
50.46000 188.000
50.48000 210.000
50.50000 192.000
50.52000 141.000
50.54000 182.000
50.56000 158.000
50.58000 174.000
50.60000 145.000
50.62000 133.000
50.64000 163.000
50.66000 137.000
50.68000 125.000
50.70000 155.000
50.72000 133.000
50.74000 151.000
50.76000 144.000
50.78000 138.000
50.80000 143.000
50.82000 136.000
50.84000 131.000
50.86000 132.000
50.88000 143.000
50.90000 144.000
50.92000 122.000
50.94000 129.000
50.96000 128.000
50.98000 143.000
51.00000 137.000
51.02000 131.000
51.04000 132.000
51.06000 108.000
51.08000 131.000
51.10000 110.000
51.12000 135.000
51.14000 137.000
51.16000 120.000
51.18000 114.000
51.20000 113.000
51.22000 142.000
51.24000 126.000
51.26000 124.000
51.28000 115.000
51.30000 124.000
51.32000 115.000
51.34000 123.000
51.36000 116.000
51.38000 109.000
51.40000 123.000
51.42000 124.000
51.44000 121.000
51.46000 134.000
51.48000 102.000
51.50000 114.000
51.52000 137.000
51.54000 112.000
51.56000 127.000
51.58000 118.000
51.60000 135.000
51.62000 114.000
51.64000 120.000
51.66000 143.000
51.68000 125.000
51.70000 120.000
51.72000 125.000
51.74000 126.000
51.76000 115.000
51.78000 128.000
51.80000 136.000
51.82000 83.000
51.84000 120.000
51.86000 107.000
51.88000 127.000
51.90000 109.000
51.92000 115.000
51.94000 152.000
51.96000 122.000
51.98000 141.000
52.00000 134.000
52.02000 128.000
52.04000 145.000
52.06000 148.000
52.08000 135.000
52.10000 145.000
52.12000 155.000
52.14000 164.000
52.16000 177.000
52.18000 174.000
52.20000 205.000
52.22000 217.000
52.24000 232.000
52.26000 271.000
52.28000 299.000
52.30000 336.000
52.32000 394.000
52.34000 404.000
52.36000 425.000
52.38000 390.000
52.40000 426.000
52.42000 376.000
52.44000 396.000
52.46000 400.000
52.48000 352.000
52.50000 311.000
52.52000 333.000
52.54000 294.000
52.56000 247.000
52.58000 256.000
52.60000 187.000
52.62000 215.000
52.64000 189.000
52.66000 161.000
52.68000 163.000
52.70000 146.000
52.72000 148.000
52.74000 134.000
52.76000 139.000
52.78000 122.000
52.80000 122.000
52.82000 109.000
52.84000 111.000
52.86000 120.000
52.88000 127.000
52.90000 116.000
52.92000 120.000
52.94000 119.000
52.96000 120.000
52.98000 122.000
53.00000 112.000
53.02000 93.000
53.04000 110.000
53.06000 104.000
53.08000 86.000
53.10000 94.000
53.12000 113.000
53.14000 101.000
53.16000 110.000
53.18000 101.000
53.20000 95.000
53.22000 107.000
53.24000 89.000
53.26000 106.000
53.28000 104.000
53.30000 125.000
53.32000 94.000
53.34000 97.000
53.36000 85.000
53.38000 90.000
53.40000 105.000
53.42000 91.000
53.44000 115.000
53.46000 103.000
53.48000 92.000
53.50000 90.000
53.52000 102.000
53.54000 101.000
53.56000 105.000
53.58000 103.000
53.60000 101.000
53.62000 95.000
53.64000 110.000
53.66000 97.000
53.68000 107.000
53.70000 109.000
53.72000 86.000
53.74000 92.000
53.76000 100.000
53.78000 105.000
53.80000 85.000
53.82000 116.000
53.84000 98.000
53.86000 104.000
53.88000 90.000
53.90000 100.000
53.92000 98.000
53.94000 104.000
53.96000 108.000
53.98000 109.000
54.00000 85.000
54.02000 86.000
54.04000 86.000
54.06000 87.000
54.08000 83.000
54.10000 83.000
54.12000 122.000
54.14000 106.000
54.16000 117.000
54.18000 104.000
54.20000 101.000
54.22000 115.000
54.24000 106.000
54.26000 118.000
54.28000 106.000
54.30000 125.000
54.32000 117.000
54.34000 127.000
54.36000 122.000
54.38000 149.000
54.40000 150.000
54.42000 137.000
54.44000 138.000
54.46000 140.000
54.48000 161.000
54.50000 161.000
54.52000 169.000
54.54000 138.000
54.56000 162.000
54.58000 174.000
54.60000 141.000
54.62000 145.000
54.64000 146.000
54.66000 112.000
54.68000 129.000
54.70000 144.000
54.72000 114.000
54.74000 120.000
54.76000 115.000
54.78000 109.000
54.80000 111.000
54.82000 113.000
54.84000 108.000
54.86000 97.000
54.88000 109.000
54.90000 101.000
54.92000 90.000
54.94000 92.000
54.96000 88.000
54.98000 97.000
55.00000 116.000
55.02000 102.000
55.04000 85.000
55.06000 84.000
55.08000 95.000
55.10000 73.000
55.12000 77.000
55.14000 114.000
55.16000 106.000
55.18000 84.000
55.20000 89.000
55.22000 97.000
55.24000 85.000
55.26000 91.000
55.28000 103.000
55.30000 83.000
55.32000 104.000
55.34000 91.000
55.36000 84.000
55.38000 86.000
55.40000 82.000
55.42000 94.000
55.44000 92.000
55.46000 86.000
55.48000 101.000
55.50000 75.000
55.52000 94.000
55.54000 99.000
55.56000 97.000
55.58000 85.000
55.60000 75.000
55.62000 99.000
55.64000 89.000
55.66000 94.000
55.68000 92.000
55.70000 89.000
55.72000 97.000
55.74000 80.000
55.76000 87.000
55.78000 85.000
55.80000 85.000
55.82000 104.000
55.84000 98.000
55.86000 92.000
55.88000 103.000
55.90000 114.000
55.92000 100.000
55.94000 116.000
55.96000 92.000
55.98000 92.000
56.00000 97.000
56.02000 90.000
56.04000 89.000
56.06000 90.000
56.08000 88.000
56.10000 99.000
56.12000 81.000
56.14000 86.000
56.16000 100.000
56.18000 97.000
56.20000 115.000
56.22000 83.000
56.24000 92.000
56.26000 101.000
56.28000 97.000
56.30000 130.000
56.32000 106.000
56.34000 96.000
56.36000 97.000
56.38000 109.000
56.40000 116.000
56.42000 98.000
56.44000 117.000
56.46000 111.000
56.48000 131.000
56.50000 108.000
56.52000 123.000
56.54000 97.000
56.56000 100.000
56.58000 114.000
56.60000 90.000
56.62000 114.000
56.64000 112.000
56.66000 91.000
56.68000 105.000
56.70000 99.000
56.72000 113.000
56.74000 84.000
56.76000 82.000
56.78000 104.000
56.80000 93.000
56.82000 91.000
56.84000 100.000
56.86000 82.000
56.88000 103.000
56.90000 83.000
56.92000 82.000
56.94000 95.000
56.96000 103.000
56.98000 76.000
57.00000 101.000
57.02000 78.000
57.04000 96.000
57.06000 104.000
57.08000 72.000
57.10000 99.000
57.12000 95.000
57.14000 92.000
57.16000 86.000
57.18000 86.000
57.20000 108.000
57.22000 93.000
57.24000 77.000
57.26000 87.000
57.28000 81.000
57.30000 111.000
57.32000 95.000
57.34000 108.000
57.36000 82.000
57.38000 93.000
57.40000 87.000
57.42000 96.000
57.44000 86.000
57.46000 79.000
57.48000 92.000
57.50000 78.000
57.52000 84.000
57.54000 83.000
57.56000 97.000
57.58000 94.000
57.60000 91.000
57.62000 93.000
57.64000 96.000
57.66000 96.000
57.68000 111.000
57.70000 88.000
57.72000 114.000
57.74000 107.000
57.76000 99.000
57.78000 94.000
57.80000 92.000
57.82000 103.000
57.84000 96.000
57.86000 97.000
57.88000 112.000
57.90000 98.000
57.92000 109.000
57.94000 100.000
57.96000 98.000
57.98000 101.000
58.00000 95.000
58.02000 103.000
58.04000 109.000
58.06000 90.000
58.08000 105.000
58.10000 76.000
58.12000 108.000
58.14000 84.000
58.16000 98.000
58.18000 96.000
58.20000 85.000
58.22000 86.000
58.24000 103.000
58.26000 106.000
58.28000 102.000
58.30000 113.000
58.32000 104.000
58.34000 93.000
58.36000 107.000
58.38000 118.000
58.40000 98.000
58.42000 125.000
58.44000 138.000
58.46000 142.000
58.48000 158.000
58.50000 151.000
58.52000 146.000
58.54000 164.000
58.56000 216.000
58.58000 199.000
58.60000 201.000
58.62000 222.000
58.64000 207.000
58.66000 182.000
58.68000 181.000
58.70000 190.000
58.72000 197.000
58.74000 182.000
58.76000 189.000
58.78000 152.000
58.80000 155.000
58.82000 131.000
58.84000 163.000
58.86000 148.000
58.88000 128.000
58.90000 129.000
58.92000 109.000
58.94000 102.000
58.96000 116.000
58.98000 123.000
59.00000 103.000
59.02000 110.000
59.04000 101.000
59.06000 104.000
59.08000 103.000
59.10000 92.000
59.12000 112.000
59.14000 89.000
59.16000 92.000
59.18000 109.000
59.20000 101.000
59.22000 105.000
59.24000 98.000
59.26000 109.000
59.28000 111.000
59.30000 94.000
59.32000 102.000
59.34000 93.000
59.36000 107.000
59.38000 95.000
59.40000 109.000
59.42000 92.000
59.44000 94.000
59.46000 95.000
59.48000 116.000
59.50000 104.000
59.52000 96.000
59.54000 119.000
59.56000 102.000
59.58000 84.000
59.60000 78.000
59.62000 114.000
59.64000 111.000
59.66000 103.000
59.68000 100.000
59.70000 100.000
59.72000 113.000
59.74000 93.000
59.76000 93.000
59.78000 96.000
59.80000 97.000
59.82000 108.000
59.84000 117.000
59.86000 104.000
59.88000 124.000
59.90000 112.000
59.92000 122.000
59.94000 114.000
59.96000 106.000
