5.00000 3527.000
5.04000 3500.000
5.08000 3582.000
5.12000 3488.000
5.16000 3585.000
5.20000 3402.000
5.24000 3495.000
5.28000 3446.000
5.32000 3475.000
5.36000 3489.000
5.40000 3458.000
5.44000 3371.000
5.48000 3544.000
5.52000 3593.000
5.56000 3477.000
5.60000 3538.000
5.64000 3581.000
5.68000 3514.000
5.72000 3680.000
5.76000 3570.000
5.80000 3616.000
5.84000 3919.000
5.88000 3877.000
5.92000 3970.000
5.96000 3931.000
6.00000 3624.000
6.04000 3393.000
6.08000 2917.000
6.12000 2646.000
6.16000 2117.000
6.20000 1973.000
6.24000 1778.000
6.28000 1687.000
6.32000 1598.000
6.36000 1530.000
6.40000 1426.000
6.44000 1439.000
6.48000 1406.000
6.52000 1458.000
6.56000 1361.000
6.60000 1400.000
6.64000 1317.000
6.68000 1361.000
6.72000 1343.000
6.76000 1268.000
6.80000 1311.000
6.84000 1321.000
6.88000 1309.000
6.92000 1311.000
6.96000 1264.000
7.00000 1246.000
7.04000 1279.000
7.08000 1229.000
7.12000 1198.000
7.16000 1238.000
7.20000 1221.000
7.24000 1194.000
7.28000 1201.000
7.32000 1171.000
7.36000 1166.000
7.40000 1219.000
7.44000 1156.000
7.48000 1271.000
7.52000 1243.000
7.56000 1228.000
7.60000 1205.000
7.64000 1239.000
7.68000 1281.000
7.72000 1243.000
7.76000 1194.000
7.80000 1210.000
7.84000 1197.000
7.88000 1146.000
7.92000 1127.000
7.96000 1064.000
8.00000 1025.000
8.04000 1034.000
8.08000 1084.000
8.12000 1007.000
8.16000 1050.000
8.20000 1096.000
8.24000 992.000
8.28000 996.000
8.32000 1083.000
8.36000 1083.000
8.40000 1019.000
8.44000 1132.000
8.48000 1093.000
8.52000 1034.000
8.56000 1076.000
8.60000 1054.000
8.64000 1031.000
8.68000 1095.000
8.72000 992.000
8.76000 1012.000
8.80000 1001.000
8.84000 956.000
8.88000 1000.000
8.92000 973.000
8.96000 990.000
9.00000 902.000
9.04000 948.000
9.08000 906.000
9.12000 909.000
9.16000 945.000
9.20000 921.000
9.24000 929.000
9.28000 918.000
9.32000 887.000
9.36000 882.000
9.40000 956.000
9.44000 959.000
9.48000 894.000
9.52000 907.000
9.56000 965.000
9.60000 883.000
9.64000 934.000
9.68000 996.000
9.72000 955.000
9.76000 1029.000
9.80000 1006.000
9.84000 1046.000
9.88000 1062.000
9.92000 1054.000
9.96000 1078.000
10.00000 1142.000
10.04000 1148.000
10.08000 1128.000
10.12000 1099.000
10.16000 1028.000
10.20000 1050.000
10.24000 1006.000
10.28000 1010.000
10.32000 941.000
10.36000 918.000
10.40000 899.000
10.44000 917.000
10.48000 925.000
10.52000 994.000
10.56000 1018.000
10.60000 990.000
10.64000 959.000
10.68000 988.000
10.72000 955.000
10.76000 924.000
10.80000 909.000
10.84000 905.000
10.88000 855.000
10.92000 793.000
10.96000 819.000
11.00000 777.000
11.04000 851.000
11.08000 753.000
11.12000 774.000
11.16000 763.000
11.20000 782.000
11.24000 787.000
11.28000 761.000
11.32000 814.000
11.36000 772.000
11.40000 811.000
11.44000 789.000
11.48000 809.000
11.52000 775.000
11.56000 824.000
11.60000 771.000
11.64000 762.000
11.68000 779.000
11.72000 733.000
11.76000 789.000
11.80000 733.000
11.84000 789.000
11.88000 702.000
11.92000 705.000
11.96000 695.000
12.00000 752.000
12.04000 784.000
12.08000 717.000
12.12000 721.000
12.16000 704.000
12.20000 781.000
12.24000 775.000
12.28000 776.000
12.32000 737.000
12.36000 780.000
12.40000 775.000
12.44000 820.000
12.48000 819.000
12.52000 844.000
12.56000 750.000
12.60000 834.000
12.64000 800.000
12.68000 801.000
12.72000 792.000
12.76000 802.000
12.80000 764.000
12.84000 798.000
12.88000 765.000
12.92000 723.000
12.96000 709.000
13.00000 707.000
13.04000 781.000
13.08000 786.000
13.12000 772.000
13.16000 825.000
13.20000 864.000
13.24000 906.000
13.28000 1005.000
13.32000 954.000
13.36000 966.000
13.40000 957.000
13.44000 982.000
13.48000 1005.000
13.52000 1018.000
13.56000 1080.000
13.60000 1131.000
13.64000 1177.000
13.68000 1283.000
13.72000 1502.000
13.76000 1722.000
13.80000 2001.000
13.84000 2401.000
13.88000 2689.000
13.92000 2868.000
13.96000 3089.000
14.00000 3183.000
14.04000 3156.000
14.08000 2794.000
14.12000 2429.000
14.16000 2026.000
14.20000 1689.000
14.24000 1280.000
14.28000 1041.000
14.32000 905.000
14.36000 775.000
14.40000 715.000
14.44000 688.000
14.48000 742.000
14.52000 723.000
14.56000 719.000
14.60000 694.000
14.64000 658.000
14.68000 660.000
14.72000 673.000
14.76000 607.000
14.80000 665.000
14.84000 644.000
14.88000 616.000
14.92000 655.000
14.96000 612.000
15.00000 652.000
15.04000 646.000
15.08000 637.000
15.12000 620.000
15.16000 592.000
15.20000 598.000
15.24000 581.000
15.28000 645.000
15.32000 617.000
15.36000 643.000
15.40000 687.000
15.44000 635.000
15.48000 606.000
15.52000 632.000
15.56000 604.000
15.60000 631.000
15.64000 648.000
15.68000 638.000
15.72000 638.000
15.76000 659.000
15.80000 594.000
15.84000 625.000
15.88000 597.000
15.92000 636.000
15.96000 627.000
16.00000 624.000
16.04000 642.000
16.08000 640.000
16.12000 619.000
16.16000 576.000
16.20000 606.000
16.24000 621.000
16.28000 634.000
16.32000 597.000
16.36000 618.000
16.40000 590.000
16.44000 611.000
16.48000 620.000
16.52000 621.000
16.56000 574.000
16.60000 602.000
16.64000 579.000
16.68000 672.000
16.72000 646.000
16.76000 621.000
16.80000 600.000
16.84000 652.000
16.88000 633.000
16.92000 669.000
16.96000 592.000
17.00000 658.000
17.04000 632.000
17.08000 651.000
17.12000 657.000
17.16000 650.000
17.20000 664.000
17.24000 687.000
17.28000 663.000
17.32000 639.000
17.36000 627.000
17.40000 678.000
17.44000 703.000
17.48000 647.000
17.52000 647.000
17.56000 652.000
17.60000 647.000
17.64000 640.000
17.68000 625.000
17.72000 676.000
17.76000 633.000
17.80000 639.000
17.84000 695.000
17.88000 647.000
17.92000 676.000
17.96000 718.000
18.00000 657.000
18.04000 713.000
18.08000 621.000
18.12000 674.000
18.16000 700.000
18.20000 655.000
18.24000 624.000
18.28000 703.000
18.32000 701.000
18.36000 697.000
18.40000 642.000
18.44000 661.000
18.48000 681.000
18.52000 654.000
18.56000 687.000
18.60000 678.000
18.64000 699.000
18.68000 663.000
18.72000 661.000
18.76000 636.000
18.80000 710.000
18.84000 670.000
18.88000 744.000
18.92000 758.000
18.96000 720.000
19.00000 649.000
19.04000 677.000
19.08000 693.000
19.12000 686.000
19.16000 729.000
19.20000 669.000
19.24000 683.000
19.28000 719.000
19.32000 773.000
19.36000 719.000
19.40000 671.000
19.44000 768.000
19.48000 727.000
19.52000 787.000
19.56000 813.000
19.60000 877.000
19.64000 939.000
19.68000 993.000
19.72000 1068.000
19.76000 1201.000
19.80000 1295.000
19.84000 1335.000
19.88000 1339.000
19.92000 1426.000
19.96000 1300.000
20.00000 1259.000
20.04000 1189.000
20.08000 1071.000
20.12000 964.000
20.16000 839.000
20.20000 807.000
20.24000 792.000
20.28000 750.000
20.32000 790.000
20.36000 789.000
20.40000 700.000
20.44000 763.000
20.48000 731.000
20.52000 780.000
20.56000 722.000
20.60000 779.000
20.64000 815.000
20.68000 788.000
20.72000 743.000
20.76000 764.000
20.80000 762.000
20.84000 735.000
20.88000 778.000
20.92000 784.000
20.96000 811.000
21.00000 812.000
21.04000 783.000
21.08000 833.000
21.12000 820.000
21.16000 785.000
21.20000 771.000
21.24000 843.000
21.28000 839.000
21.32000 782.000
21.36000 816.000
21.40000 771.000
21.44000 801.000
21.48000 794.000
21.52000 778.000
21.56000 815.000
21.60000 825.000
21.64000 766.000
21.68000 849.000
21.72000 851.000
21.76000 774.000
21.80000 762.000
21.84000 831.000
21.88000 809.000
21.92000 775.000
21.96000 819.000
22.00000 830.000
22.04000 841.000
22.08000 813.000
22.12000 830.000
22.16000 879.000
22.20000 854.000
22.24000 848.000
22.28000 851.000
22.32000 828.000
22.36000 862.000
22.40000 861.000
22.44000 876.000
22.48000 860.000
22.52000 859.000
22.56000 849.000
22.60000 818.000
22.64000 777.000
22.68000 828.000
22.72000 847.000
22.76000 809.000
22.80000 882.000
22.84000 865.000
22.88000 891.000
22.92000 814.000
22.96000 944.000
23.00000 927.000
23.04000 975.000
23.08000 914.000
23.12000 1018.000
23.16000 1038.000
23.20000 986.000
23.24000 973.000
23.28000 963.000
23.32000 999.000
23.36000 908.000
23.40000 881.000
23.44000 879.000
23.48000 868.000
23.52000 881.000
23.56000 804.000
23.60000 793.000
23.64000 831.000
23.68000 856.000
23.72000 825.000
23.76000 822.000
23.80000 825.000
23.84000 890.000
23.88000 835.000
23.92000 869.000
23.96000 854.000
24.00000 813.000
24.04000 861.000
24.08000 885.000
24.12000 922.000
24.16000 954.000
24.20000 971.000
24.24000 1040.000
24.28000 1099.000
24.32000 1232.000
24.36000 1269.000
24.40000 1387.000
24.44000 1438.000
24.48000 1394.000
24.52000 1318.000
24.56000 1352.000
24.60000 1323.000
24.64000 1120.000
24.68000 1035.000
24.72000 968.000
24.76000 939.000
24.80000 904.000
24.84000 925.000
24.88000 947.000
24.92000 883.000
24.96000 924.000
25.00000 862.000
25.04000 847.000
25.08000 848.000
25.12000 869.000
25.16000 891.000
25.20000 879.000
25.24000 839.000
25.28000 882.000
25.32000 839.000
25.36000 841.000
25.40000 875.000
25.44000 881.000
25.48000 785.000
25.52000 833.000
25.56000 865.000
25.60000 876.000
25.64000 904.000
25.68000 855.000
25.72000 827.000
25.76000 868.000
25.80000 872.000
25.84000 874.000
25.88000 859.000
25.92000 902.000
25.96000 914.000
26.00000 841.000
26.04000 855.000
26.08000 885.000
26.12000 913.000
26.16000 896.000
26.20000 838.000
26.24000 834.000
26.28000 788.000
26.32000 843.000
26.36000 858.000
26.40000 846.000
26.44000 871.000
26.48000 879.000
26.52000 922.000
26.56000 887.000
26.60000 920.000
26.64000 935.000
26.68000 973.000
26.72000 978.000
26.76000 987.000
26.80000 1013.000
26.84000 1041.000
26.88000 1038.000
26.92000 1075.000
26.96000 1101.000
27.00000 1073.000
27.04000 1100.000
27.08000 1054.000
27.12000 1063.000
27.16000 1053.000
27.20000 950.000
27.24000 926.000
27.28000 910.000
27.32000 810.000
27.36000 825.000
27.40000 805.000
27.44000 830.000
27.48000 815.000
27.52000 807.000
27.56000 834.000
27.60000 834.000
27.64000 794.000
27.68000 852.000
27.72000 828.000
27.76000 808.000
27.80000 856.000
27.84000 837.000
27.88000 886.000
27.92000 906.000
27.96000 932.000
28.00000 1041.000
28.04000 1088.000
28.08000 1214.000
28.12000 1355.000
28.16000 1520.000
28.20000 1723.000
28.24000 1831.000
28.28000 1913.000
28.32000 2015.000
28.36000 2018.000
28.40000 1943.000
28.44000 1670.000
28.48000 1595.000
28.52000 1255.000
28.56000 1113.000
28.60000 971.000
28.64000 898.000
28.68000 832.000
28.72000 846.000
28.76000 864.000
28.80000 773.000
28.84000 780.000
28.88000 764.000
28.92000 781.000
28.96000 776.000
29.00000 811.000
29.04000 786.000
29.08000 737.000
29.12000 807.000
29.16000 764.000
29.20000 718.000
29.24000 792.000
29.28000 757.000
29.32000 706.000
29.36000 683.000
29.40000 785.000
29.44000 709.000
29.48000 746.000
29.52000 715.000
29.56000 714.000
29.60000 715.000
29.64000 725.000
29.68000 711.000
29.72000 769.000
29.76000 696.000
29.80000 699.000
29.84000 677.000
29.88000 670.000
29.92000 678.000
29.96000 722.000
30.00000 691.000
30.04000 734.000
30.08000 683.000
30.12000 690.000
30.16000 716.000
30.20000 747.000
30.24000 722.000
30.28000 770.000
30.32000 773.000
30.36000 735.000
30.40000 770.000
30.44000 702.000
30.48000 701.000
30.52000 724.000
30.56000 707.000
30.60000 680.000
30.64000 691.000
30.68000 720.000
30.72000 731.000
30.76000 673.000
30.80000 726.000
30.84000 702.000
30.88000 705.000
30.92000 683.000
30.96000 715.000
31.00000 663.000
31.04000 711.000
31.08000 731.000
31.12000 691.000
31.16000 671.000
31.20000 690.000
31.24000 700.000
31.28000 717.000
31.32000 709.000
31.36000 720.000
31.40000 748.000
31.44000 854.000
31.48000 860.000
31.52000 970.000
31.56000 1136.000
31.60000 1340.000
31.64000 1559.000
31.68000 1749.000
31.72000 1843.000
31.76000 1935.000
31.80000 1909.000
31.84000 1784.000
31.88000 1677.000
31.92000 1451.000
31.96000 1282.000
32.00000 1019.000
32.04000 872.000
32.08000 853.000
32.12000 793.000
32.16000 737.000
32.20000 754.000
32.24000 687.000
32.28000 694.000
32.32000 653.000
32.36000 655.000
32.40000 633.000
32.44000 628.000
32.48000 625.000
32.52000 600.000
32.56000 585.000
32.60000 606.000
32.64000 597.000
32.68000 633.000
32.72000 622.000
32.76000 588.000
32.80000 608.000
32.84000 608.000
32.88000 678.000
32.92000 582.000
32.96000 658.000
33.00000 593.000
33.04000 597.000
33.08000 591.000
33.12000 528.000
33.16000 578.000
33.20000 594.000
33.24000 547.000
33.28000 601.000
33.32000 577.000
33.36000 600.000
33.40000 549.000
33.44000 559.000
33.48000 596.000
33.52000 573.000
33.56000 581.000
33.60000 564.000
33.64000 551.000
33.68000 586.000
33.72000 577.000
33.76000 568.000
33.80000 519.000
33.84000 602.000
33.88000 552.000
33.92000 595.000
33.96000 531.000
34.00000 549.000
34.04000 581.000
34.08000 520.000
34.12000 543.000
34.16000 508.000
34.20000 536.000
34.24000 499.000
34.28000 542.000
34.32000 569.000
34.36000 508.000
34.40000 503.000
34.44000 559.000
34.48000 529.000
34.52000 545.000
34.56000 531.000
34.60000 558.000
34.64000 534.000
34.68000 617.000
34.72000 622.000
34.76000 651.000
34.80000 685.000
34.84000 735.000
34.88000 808.000
34.92000 750.000
34.96000 790.000
35.00000 727.000
35.04000 731.000
35.08000 641.000
35.12000 617.000
35.16000 574.000
35.20000 506.000
35.24000 520.000
35.28000 513.000
35.32000 520.000
35.36000 480.000
35.40000 513.000
35.44000 505.000
35.48000 437.000
35.52000 444.000
35.56000 511.000
35.60000 513.000
35.64000 486.000
35.68000 469.000
35.72000 435.000
35.76000 418.000
35.80000 490.000
35.84000 460.000
35.88000 449.000
35.92000 458.000
35.96000 476.000
36.00000 423.000
36.04000 450.000
36.08000 458.000
36.12000 476.000
36.16000 471.000
36.20000 459.000
36.24000 491.000
36.28000 475.000
36.32000 443.000
36.36000 450.000
36.40000 445.000
36.44000 450.000
36.48000 482.000
36.52000 493.000
36.56000 487.000
36.60000 507.000
36.64000 437.000
36.68000 462.000
36.72000 476.000
36.76000 463.000
36.80000 498.000
36.84000 460.000
36.88000 463.000
36.92000 462.000
36.96000 487.000
37.00000 420.000
37.04000 450.000
37.08000 457.000
37.12000 452.000
37.16000 440.000
37.20000 434.000
37.24000 445.000
37.28000 447.000
37.32000 418.000
37.36000 416.000
37.40000 428.000
37.44000 434.000
37.48000 408.000
37.52000 438.000
37.56000 425.000
37.60000 394.000
37.64000 375.000
37.68000 404.000
37.72000 409.000
37.76000 395.000
37.80000 413.000
37.84000 418.000
37.88000 406.000
37.92000 426.000
37.96000 394.000
38.00000 392.000
38.04000 428.000
38.08000 467.000
38.12000 433.000
38.16000 413.000
38.20000 433.000
38.24000 446.000
38.28000 445.000
38.32000 433.000
38.36000 446.000
38.40000 459.000
38.44000 436.000
38.48000 449.000
38.52000 525.000
38.56000 522.000
38.60000 459.000
38.64000 446.000
38.68000 458.000
38.72000 454.000
38.76000 429.000
38.80000 450.000
38.84000 433.000
38.88000 406.000
38.92000 404.000
38.96000 433.000
39.00000 392.000
39.04000 427.000
39.08000 415.000
39.12000 419.000
39.16000 404.000
39.20000 384.000
39.24000 414.000
39.28000 443.000
39.32000 448.000
39.36000 446.000
39.40000 460.000
39.44000 490.000
39.48000 425.000
39.52000 417.000
39.56000 462.000
39.60000 403.000
39.64000 407.000
39.68000 406.000
39.72000 390.000
39.76000 421.000
39.80000 404.000
39.84000 367.000
39.88000 384.000
39.92000 450.000
39.96000 443.000
40.00000 450.000
40.04000 435.000
40.08000 490.000
40.12000 489.000
40.16000 507.000
40.20000 534.000
40.24000 537.000
40.28000 681.000
40.32000 730.000
40.36000 938.000
40.40000 1105.000
40.44000 1166.000
40.48000 1315.000
40.52000 1410.000
40.56000 1435.000
40.60000 1377.000
40.64000 1178.000
40.68000 1139.000
40.72000 982.000
40.76000 811.000
40.80000 683.000
40.84000 588.000
40.88000 508.000
40.92000 466.000
40.96000 491.000
41.00000 479.000
41.04000 410.000
41.08000 480.000
41.12000 433.000
41.16000 454.000
41.20000 459.000
41.24000 423.000
41.28000 435.000
41.32000 421.000
41.36000 436.000
41.40000 422.000
41.44000 424.000
41.48000 391.000
41.52000 411.000
41.56000 448.000
41.60000 413.000
41.64000 377.000
41.68000 405.000
41.72000 433.000
41.76000 427.000
41.80000 379.000
41.84000 383.000
41.88000 407.000
41.92000 387.000
41.96000 401.000
42.00000 366.000
42.04000 395.000
42.08000 403.000
42.12000 386.000
42.16000 396.000
42.20000 393.000
42.24000 368.000
42.28000 385.000
42.32000 382.000
42.36000 396.000
42.40000 430.000
42.44000 427.000
42.48000 442.000
42.52000 410.000
42.56000 390.000
42.60000 373.000
42.64000 409.000
42.68000 393.000
42.72000 396.000
42.76000 458.000
42.80000 486.000
42.84000 495.000
42.88000 519.000
42.92000 615.000
42.96000 701.000
43.00000 764.000
43.04000 836.000
43.08000 899.000
43.12000 936.000
43.16000 921.000
43.20000 842.000
43.24000 818.000
43.28000 748.000
43.32000 684.000
43.36000 585.000
43.40000 493.000
43.44000 466.000
43.48000 393.000
43.52000 443.000
43.56000 410.000
43.60000 404.000
43.64000 395.000
43.68000 379.000
43.72000 411.000
43.76000 382.000
43.80000 380.000
43.84000 387.000
43.88000 392.000
43.92000 395.000
43.96000 447.000
44.00000 368.000
44.04000 388.000
44.08000 384.000
44.12000 420.000
44.16000 414.000
44.20000 393.000
44.24000 364.000
44.28000 363.000
44.32000 403.000
44.36000 364.000
44.40000 355.000
44.44000 411.000
44.48000 381.000
44.52000 389.000
44.56000 340.000
44.60000 391.000
44.64000 376.000
44.68000 414.000
44.72000 361.000
44.76000 382.000
44.80000 381.000
44.84000 383.000
44.88000 386.000
44.92000 390.000
44.96000 391.000
45.00000 390.000
45.04000 370.000
45.08000 392.000
45.12000 374.000
45.16000 356.000
45.20000 403.000
45.24000 468.000
45.28000 388.000
45.32000 398.000
45.36000 388.000
45.40000 425.000
45.44000 395.000
45.48000 386.000
45.52000 388.000
45.56000 378.000
45.60000 369.000
45.64000 410.000
45.68000 406.000
45.72000 391.000
45.76000 396.000
45.80000 367.000
45.84000 363.000
45.88000 365.000
45.92000 336.000
45.96000 358.000
46.00000 366.000
46.04000 350.000
46.08000 351.000
46.12000 366.000
46.16000 331.000
46.20000 320.000
46.24000 399.000
46.28000 367.000
46.32000 394.000
46.36000 378.000
46.40000 352.000
46.44000 353.000
46.48000 355.000
46.52000 319.000
46.56000 372.000
46.60000 353.000
46.64000 323.000
46.68000 356.000
46.72000 361.000
46.76000 338.000
46.80000 323.000
46.84000 354.000
46.88000 313.000
46.92000 339.000
46.96000 360.000
47.00000 373.000
47.04000 356.000
47.08000 387.000
47.12000 363.000
47.16000 331.000
47.20000 333.000
47.24000 339.000
47.28000 359.000
47.32000 374.000
47.36000 318.000
47.40000 380.000
47.44000 335.000
47.48000 346.000
47.52000 317.000
47.56000 300.000
47.60000 326.000
47.64000 343.000
47.68000 348.000
47.72000 328.000
47.76000 334.000
47.80000 362.000
47.84000 353.000
47.88000 366.000
47.92000 348.000
47.96000 381.000
48.00000 343.000
48.04000 357.000
48.08000 337.000
48.12000 352.000
48.16000 348.000
48.20000 312.000
48.24000 326.000
48.28000 369.000
48.32000 382.000
48.36000 326.000
48.40000 332.000
48.44000 324.000
48.48000 351.000
48.52000 340.000
48.56000 351.000
48.60000 338.000
48.64000 289.000
48.68000 341.000
48.72000 319.000
48.76000 343.000
48.80000 313.000
48.84000 319.000
48.88000 305.000
48.92000 312.000
48.96000 342.000
49.00000 336.000
49.04000 324.000
49.08000 328.000
49.12000 337.000
49.16000 345.000
49.20000 332.000
49.24000 327.000
49.28000 311.000
49.32000 361.000
49.36000 355.000
49.40000 361.000
49.44000 346.000
49.48000 326.000
49.52000 346.000
49.56000 355.000
49.60000 291.000
49.64000 324.000
49.68000 338.000
49.72000 352.000
49.76000 342.000
49.80000 317.000
49.84000 323.000
49.88000 310.000
49.92000 354.000
49.96000 363.000
50.00000 394.000
50.04000 412.000
50.08000 445.000
50.12000 498.000
50.16000 495.000
50.20000 503.000
50.24000 537.000
50.28000 548.000
50.32000 487.000
50.36000 471.000
50.40000 461.000
50.44000 379.000
50.48000 412.000
50.52000 397.000
50.56000 342.000
50.60000 383.000
50.64000 350.000
50.68000 342.000
50.72000 332.000
50.76000 323.000
50.80000 334.000
50.84000 316.000
50.88000 334.000
50.92000 325.000
50.96000 330.000
51.00000 327.000
51.04000 348.000
51.08000 335.000
51.12000 308.000
51.16000 304.000
51.20000 288.000
51.24000 323.000
51.28000 350.000
51.32000 341.000
51.36000 285.000
51.40000 312.000
51.44000 312.000
51.48000 317.000
51.52000 319.000
51.56000 337.000
51.60000 332.000
51.64000 330.000
51.68000 308.000
51.72000 341.000
51.76000 275.000
51.80000 303.000
51.84000 309.000
51.88000 320.000
51.92000 315.000
51.96000 312.000
52.00000 312.000
52.04000 365.000
52.08000 340.000
52.12000 333.000
52.16000 341.000
52.20000 363.000
52.24000 362.000
52.28000 391.000
52.32000 391.000
52.36000 383.000
52.40000 421.000
52.44000 428.000
52.48000 426.000
52.52000 369.000
52.56000 393.000
52.60000 373.000
52.64000 359.000
52.68000 350.000
52.72000 338.000
52.76000 311.000
52.80000 321.000
52.84000 342.000
52.88000 306.000
52.92000 317.000
52.96000 356.000
53.00000 297.000
53.04000 339.000
53.08000 310.000
53.12000 319.000
53.16000 318.000
53.20000 335.000
53.24000 316.000
53.28000 289.000
53.32000 306.000
53.36000 337.000
53.40000 319.000
53.44000 322.000
53.48000 326.000
53.52000 329.000
53.56000 323.000
53.60000 300.000
53.64000 307.000
53.68000 310.000
53.72000 292.000
53.76000 319.000
53.80000 289.000
53.84000 316.000
53.88000 338.000
53.92000 330.000
53.96000 326.000
54.00000 297.000
54.04000 288.000
54.08000 312.000
54.12000 324.000
54.16000 314.000
54.20000 293.000
54.24000 317.000
54.28000 310.000
54.32000 328.000
54.36000 344.000
54.40000 345.000
54.44000 345.000
54.48000 378.000
54.52000 361.000
54.56000 406.000
54.60000 428.000
54.64000 372.000
54.68000 369.000
54.72000 393.000
54.76000 377.000
54.80000 395.000
54.84000 357.000
54.88000 322.000
54.92000 344.000
54.96000 316.000
55.00000 334.000
55.04000 302.000
55.08000 307.000
55.12000 290.000
55.16000 316.000
55.20000 334.000
55.24000 304.000
55.28000 295.000
55.32000 289.000
55.36000 319.000
55.40000 320.000
55.44000 273.000
55.48000 325.000
55.52000 318.000
55.56000 312.000
55.60000 319.000
55.64000 301.000
55.68000 318.000
55.72000 286.000
55.76000 313.000
55.80000 293.000
55.84000 328.000
55.88000 334.000
55.92000 351.000
55.96000 292.000
56.00000 320.000
56.04000 293.000
56.08000 320.000
56.12000 304.000
56.16000 298.000
56.20000 310.000
56.24000 302.000
56.28000 321.000
56.32000 299.000
56.36000 304.000
56.40000 314.000
56.44000 306.000
56.48000 298.000
56.52000 317.000
56.56000 310.000
56.60000 304.000
56.64000 302.000
56.68000 326.000
56.72000 313.000
56.76000 310.000
56.80000 313.000
56.84000 294.000
56.88000 299.000
56.92000 324.000
56.96000 302.000
57.00000 318.000
57.04000 274.000
57.08000 304.000
57.12000 277.000
57.16000 287.000
57.20000 285.000
57.24000 283.000
57.28000 283.000
57.32000 293.000
57.36000 291.000
57.40000 308.000
57.44000 317.000
57.48000 259.000
57.52000 309.000
57.56000 285.000
57.60000 300.000
57.64000 301.000
57.68000 330.000
57.72000 334.000
57.76000 336.000
57.80000 307.000
57.84000 334.000
57.88000 336.000
57.92000 326.000
57.96000 295.000
58.00000 299.000
58.04000 297.000
58.08000 296.000
58.12000 310.000
58.16000 307.000
58.20000 332.000
58.24000 333.000
58.28000 317.000
58.32000 344.000
58.36000 295.000
58.40000 335.000
58.44000 336.000
58.48000 361.000
58.52000 320.000
58.56000 328.000
58.60000 309.000
58.64000 328.000
58.68000 327.000
58.72000 329.000
58.76000 353.000
58.80000 319.000
58.84000 317.000
58.88000 306.000
58.92000 335.000
58.96000 318.000
59.00000 313.000
59.04000 302.000
59.08000 323.000
59.12000 302.000
59.16000 327.000
59.20000 292.000
59.24000 321.000
59.28000 325.000
59.32000 342.000
59.36000 331.000
59.40000 314.000
59.44000 331.000
59.48000 312.000
59.52000 295.000
59.56000 287.000
59.60000 293.000
59.64000 306.000
59.68000 322.000
59.72000 299.000
59.76000 279.000
59.80000 302.000
59.84000 292.000
59.88000 300.000
59.92000 312.000
59.96000 301.000
60.00000 305.000
60.04000 292.000
60.08000 310.000
60.12000 328.000
60.16000 335.000
60.20000 290.000
60.24000 320.000
60.28000 338.000
60.32000 317.000
60.36000 286.000
60.40000 351.000
60.44000 344.000
60.48000 345.000
60.52000 361.000
60.56000 340.000
60.60000 410.000
60.64000 411.000
60.68000 380.000
60.72000 372.000
60.76000 399.000
60.80000 382.000
60.84000 408.000
60.88000 363.000
60.92000 347.000
60.96000 345.000
61.00000 349.000
61.04000 333.000
61.08000 328.000
61.12000 327.000
61.16000 291.000
61.20000 332.000
61.24000 343.000
61.28000 339.000
61.32000 315.000
61.36000 317.000
61.40000 313.000
61.44000 303.000
61.48000 319.000
61.52000 311.000
61.56000 335.000
61.60000 343.000
61.64000 323.000
61.68000 321.000
61.72000 302.000
61.76000 310.000
61.80000 309.000
61.84000 306.000
61.88000 308.000
61.92000 300.000
61.96000 317.000
62.00000 326.000
62.04000 298.000
62.08000 311.000
62.12000 307.000
62.16000 305.000
62.20000 308.000
62.24000 335.000
62.28000 305.000
62.32000 322.000
62.36000 355.000
62.40000 315.000
62.44000 275.000
62.48000 356.000
62.52000 325.000
62.56000 337.000
62.60000 301.000
62.64000 336.000
62.68000 332.000
62.72000 339.000
62.76000 346.000
62.80000 308.000
62.84000 318.000
62.88000 329.000
62.92000 340.000
62.96000 342.000
63.00000 321.000
63.04000 267.000
63.08000 295.000
63.12000 290.000
63.16000 313.000
63.20000 297.000
63.24000 293.000
63.28000 305.000
63.32000 322.000
63.36000 295.000
63.40000 303.000
63.44000 310.000
63.48000 267.000
63.52000 283.000
63.56000 272.000
63.60000 286.000
63.64000 292.000
63.68000 300.000
63.72000 275.000
63.76000 264.000
63.80000 269.000
63.84000 288.000
63.88000 315.000
63.92000 299.000
63.96000 277.000
64.00000 304.000
64.04000 267.000
64.08000 290.000
64.12000 315.000
64.16000 328.000
64.20000 291.000
64.24000 291.000
64.28000 283.000
64.32000 304.000
64.36000 313.000
64.40000 268.000
64.44000 310.000
64.48000 303.000
64.52000 327.000
64.56000 288.000
64.60000 316.000
64.64000 293.000
64.68000 296.000
64.72000 315.000
64.76000 314.000
64.80000 309.000
64.84000 321.000
64.88000 298.000
64.92000 278.000
64.96000 251.000
65.00000 340.000
65.04000 293.000
65.08000 279.000
65.12000 298.000
65.16000 318.000
65.20000 275.000
65.24000 296.000
65.28000 307.000
65.32000 289.000
65.36000 290.000
65.40000 313.000
65.44000 292.000
65.48000 300.000
65.52000 288.000
65.56000 292.000
65.60000 296.000
65.64000 316.000
65.68000 307.000
65.72000 283.000
65.76000 292.000
65.80000 305.000
65.84000 270.000
65.88000 324.000
65.92000 289.000
65.96000 284.000
66.00000 286.000
66.04000 305.000
66.08000 288.000
66.12000 325.000
66.16000 294.000
66.20000 309.000
66.24000 312.000
66.28000 345.000
66.32000 324.000
66.36000 382.000
66.40000 353.000
66.44000 342.000
66.48000 346.000
66.52000 338.000
66.56000 321.000
66.60000 368.000
66.64000 355.000
66.68000 326.000
66.72000 343.000
66.76000 322.000
66.80000 290.000
66.84000 294.000
66.88000 314.000
66.92000 293.000
66.96000 253.000
67.00000 304.000
67.04000 292.000
67.08000 294.000
67.12000 281.000
67.16000 292.000
67.20000 322.000
67.24000 307.000
67.28000 304.000
67.32000 298.000
67.36000 280.000
67.40000 280.000
67.44000 305.000
67.48000 286.000
67.52000 292.000
67.56000 288.000
67.60000 274.000
67.64000 264.000
67.68000 280.000
67.72000 241.000
67.76000 261.000
67.80000 276.000
67.84000 275.000
67.88000 296.000
67.92000 253.000
67.96000 311.000
68.00000 294.000
68.04000 296.000
68.08000 294.000
68.12000 332.000
68.16000 322.000
68.20000 341.000
68.24000 324.000
68.28000 330.000
68.32000 356.000
68.36000 325.000
68.40000 339.000
68.44000 337.000
68.48000 337.000
68.52000 337.000
68.56000 324.000
68.60000 295.000
68.64000 283.000
68.68000 281.000
68.72000 320.000
68.76000 300.000
68.80000 273.000
68.84000 312.000
68.88000 303.000
68.92000 272.000
68.96000 252.000
69.00000 272.000
69.04000 274.000
69.08000 264.000
69.12000 241.000
69.16000 256.000
69.20000 257.000
69.24000 269.000
69.28000 279.000
69.32000 266.000
69.36000 259.000
69.40000 287.000
69.44000 311.000
69.48000 266.000
69.52000 271.000
69.56000 269.000
69.60000 280.000
69.64000 239.000
69.68000 248.000
69.72000 254.000
69.76000 239.000
69.80000 251.000
69.84000 264.000
69.88000 283.000
69.92000 274.000
