3.00000 7178.000
3.04000 7107.000
3.08000 7022.000
3.12000 6960.000
3.16000 6999.000
3.20000 6781.000
3.24000 6772.000
3.28000 6571.000
3.32000 6766.000
3.36000 6654.000
3.40000 6599.000
3.44000 6699.000
3.48000 6444.000
3.52000 6618.000
3.56000 6433.000
3.60000 6467.000
3.64000 6363.000
3.68000 6467.000
3.72000 6331.000
3.76000 6277.000
3.80000 6214.000
3.84000 6249.000
3.88000 6105.000
3.92000 6087.000
3.96000 6087.000
4.00000 6108.000
4.04000 5948.000
4.08000 6155.000
4.12000 6035.000
4.16000 5966.000
4.20000 5906.000
4.24000 5817.000
4.28000 5922.000
4.32000 5849.000
4.36000 5774.000
4.40000 5857.000
4.44000 5657.000
4.48000 5591.000
4.52000 5791.000
4.56000 5606.000
4.60000 5509.000
4.64000 5711.000
4.68000 5592.000
4.72000 5775.000
4.76000 5596.000
4.80000 5394.000
4.84000 5445.000
4.88000 5375.000
4.92000 5376.000
4.96000 5463.000
5.00000 5388.000
5.04000 5213.000
5.08000 5258.000
5.12000 5075.000
5.16000 5233.000
5.20000 5144.000
5.24000 5217.000
5.28000 4942.000
5.32000 5158.000
5.36000 5107.000
5.40000 5036.000
5.44000 5050.000
5.48000 4905.000
5.52000 4941.000
5.56000 4952.000
5.60000 4823.000
5.64000 4703.000
5.68000 4762.000
5.72000 4756.000
5.76000 4715.000
5.80000 4657.000
5.84000 4601.000
5.88000 4608.000
5.92000 4626.000
5.96000 4545.000
6.00000 4429.000
6.04000 4518.000
6.08000 4428.000
6.12000 4479.000
6.16000 4324.000
6.20000 4378.000
6.24000 4313.000
6.28000 4332.000
6.32000 4204.000
6.36000 4370.000
6.40000 4301.000
6.44000 4181.000
6.48000 4145.000
6.52000 4218.000
6.56000 4214.000
6.60000 4119.000
6.64000 4137.000
6.68000 4021.000
6.72000 4105.000
6.76000 4149.000
6.80000 3964.000
6.84000 3888.000
6.88000 4004.000
6.92000 4047.000
6.96000 3864.000
7.00000 3883.000
7.04000 3912.000
7.08000 3776.000
7.12000 3779.000
7.16000 3867.000
7.20000 3773.000
7.24000 3660.000
7.28000 3656.000
7.32000 3750.000
7.36000 3752.000
7.40000 3723.000
7.44000 3843.000
7.48000 3687.000
7.52000 3564.000
7.56000 3611.000
7.60000 3624.000
7.64000 3618.000
7.68000 3576.000
7.72000 3552.000
7.76000 3518.000
7.80000 3487.000
7.84000 3452.000
7.88000 3469.000
7.92000 3349.000
7.96000 3369.000
8.00000 3412.000
8.04000 3561.000
8.08000 3407.000
8.12000 3391.000
8.16000 3179.000
8.20000 3269.000
8.24000 3334.000
8.28000 3236.000
8.32000 3284.000
8.36000 3384.000
8.40000 3289.000
8.44000 3293.000
8.48000 3184.000
8.52000 3210.000
8.56000 3239.000
8.60000 3285.000
8.64000 3164.000
8.68000 3172.000
8.72000 3100.000
8.76000 3130.000
8.80000 3091.000
8.84000 3122.000
8.88000 3136.000
8.92000 3020.000
8.96000 3003.000
9.00000 2971.000
9.04000 2992.000
9.08000 3034.000
9.12000 3075.000
9.16000 3062.000
9.20000 2878.000
9.24000 2948.000
9.28000 2925.000
9.32000 2863.000
9.36000 2987.000
9.40000 2859.000
9.44000 2992.000
9.48000 2872.000
9.52000 2801.000
9.56000 2741.000
9.60000 2894.000
9.64000 2863.000
9.68000 2796.000
9.72000 2846.000
9.76000 2855.000
9.80000 2769.000
9.84000 2770.000
9.88000 2843.000
9.92000 2784.000
9.96000 2775.000
10.00000 2749.000
10.04000 2712.000
10.08000 2703.000
10.12000 2758.000
10.16000 2705.000
10.20000 2631.000
10.24000 2707.000
10.28000 2694.000
10.32000 2829.000
10.36000 2751.000
10.40000 2673.000
10.44000 2615.000
10.48000 2592.000
10.52000 2643.000
10.56000 2701.000
10.60000 2601.000
10.64000 2589.000
10.68000 2672.000
10.72000 2620.000
10.76000 2569.000
10.80000 2620.000
10.84000 2657.000
10.88000 2578.000
10.92000 2666.000
10.96000 2658.000
11.00000 2597.000
11.04000 2669.000
11.08000 2615.000
11.12000 2663.000
11.16000 2767.000
11.20000 2682.000
11.24000 2724.000
11.28000 2773.000
11.32000 2824.000
11.36000 2842.000
11.40000 2883.000
11.44000 2729.000
11.48000 2764.000
11.52000 2864.000
11.56000 2880.000
11.60000 2785.000
11.64000 2887.000
11.68000 2815.000
11.72000 2867.000
11.76000 2855.000
11.80000 2967.000
11.84000 3017.000
11.88000 3196.000
11.92000 3165.000
11.96000 3333.000
12.00000 3465.000
12.04000 3621.000
12.08000 3918.000
12.12000 3976.000
12.16000 4291.000
12.20000 4644.000
12.24000 5291.000
12.28000 6202.000
12.32000 7820.000
12.36000 10370.000
12.40000 13922.000
12.44000 18190.000
12.48000 23343.000
12.52000 28160.000
12.56000 32470.000
12.60000 35106.000
12.64000 36566.000
12.68000 35944.000
12.72000 33520.000
12.76000 29233.000
12.80000 25022.000
12.84000 19625.000
12.88000 15249.000
12.92000 11112.000
12.96000 8050.000
13.00000 6251.000
13.04000 4875.000
13.08000 4023.000
13.12000 3590.000
13.16000 3346.000
13.20000 3062.000
13.24000 3068.000
13.28000 2945.000
13.32000 2981.000
13.36000 2944.000
13.40000 2947.000
13.44000 2970.000
13.48000 3056.000
13.52000 3173.000
13.56000 3386.000
13.60000 3518.000
13.64000 3796.000
13.68000 4023.000
13.72000 4525.000
13.76000 5044.000
13.80000 6048.000
13.84000 6867.000
13.88000 7734.000
13.92000 8868.000
13.96000 9303.000
14.00000 9589.000
14.04000 9451.000
14.08000 8963.000
14.12000 8052.000
14.16000 6770.000
14.20000 5530.000
14.24000 4456.000
14.28000 3529.000
14.32000 3029.000
14.36000 2581.000
14.40000 2406.000
14.44000 2336.000
14.48000 2344.000
14.52000 2267.000
14.56000 2199.000
14.60000 2108.000
14.64000 2101.000
14.68000 2066.000
14.72000 2118.000
14.76000 2134.000
14.80000 2039.000
14.84000 2047.000
14.88000 2042.000
14.92000 2034.000
14.96000 2009.000
15.00000 1985.000
15.04000 1992.000
15.08000 1986.000
15.12000 2031.000
15.16000 1921.000
15.20000 1967.000
15.24000 1922.000
15.28000 1916.000
15.32000 1948.000
15.36000 1958.000
15.40000 1924.000
15.44000 1957.000
15.48000 1942.000
15.52000 1977.000
15.56000 1957.000
15.60000 1898.000
15.64000 2063.000
15.68000 1914.000
15.72000 1968.000
15.76000 1944.000
15.80000 1938.000
15.84000 1992.000
15.88000 1975.000
15.92000 1972.000
15.96000 1938.000
16.00000 1936.000
16.04000 2044.000
16.08000 1927.000
16.12000 1976.000
16.16000 1959.000
16.20000 1921.000
16.24000 1974.000
16.28000 1866.000
16.32000 1973.000
16.36000 1989.000
16.40000 1965.000
16.44000 1958.000
16.48000 1926.000
16.52000 1869.000
16.56000 1963.000
16.60000 1859.000
16.64000 1997.000
16.68000 1963.000
16.72000 1961.000
16.76000 1945.000
16.80000 1979.000
16.84000 1919.000
16.88000 1919.000
16.92000 1962.000
16.96000 2003.000
17.00000 1984.000
17.04000 1917.000
17.08000 1957.000
17.12000 1952.000
17.16000 2020.000
17.20000 1988.000
17.24000 1952.000
17.28000 1917.000
17.32000 1930.000
17.36000 2090.000
17.40000 1945.000
17.44000 1984.000
17.48000 1999.000
17.52000 1947.000
17.56000 2030.000
17.60000 1926.000
17.64000 1946.000
17.68000 1992.000
17.72000 2064.000
17.76000 1963.000
17.80000 2057.000
17.84000 2000.000
17.88000 1883.000
17.92000 2001.000
17.96000 1986.000
18.00000 1966.000
18.04000 1978.000
18.08000 2088.000
18.12000 2006.000
18.16000 2002.000
18.20000 2016.000
18.24000 2010.000
18.28000 2094.000
18.32000 2024.000
18.36000 2056.000
18.40000 2077.000
18.44000 1996.000
18.48000 1978.000
18.52000 2042.000
18.56000 2077.000
18.60000 2068.000
18.64000 2016.000
18.68000 2068.000
18.72000 2114.000
18.76000 2241.000
18.80000 2116.000
18.84000 2073.000
18.88000 2110.000
18.92000 2112.000
18.96000 2126.000
19.00000 2051.000
19.04000 2226.000
19.08000 2128.000
19.12000 2195.000
19.16000 2126.000
19.20000 2215.000
19.24000 2216.000
19.28000 2147.000
19.32000 2266.000
19.36000 2299.000
19.40000 2171.000
19.44000 2274.000
19.48000 2281.000
19.52000 2417.000
19.56000 2382.000
19.60000 2555.000
19.64000 2705.000
19.68000 2975.000
19.72000 3385.000
19.76000 3943.000
19.80000 4351.000
19.84000 4497.000
19.88000 4950.000
19.92000 5058.000
19.96000 4853.000
20.00000 4587.000
20.04000 4389.000
20.08000 3744.000
20.12000 3371.000
20.16000 3009.000
20.20000 2670.000
20.24000 2558.000
20.28000 2469.000
20.32000 2418.000
20.36000 2368.000
20.40000 2368.000
20.44000 2316.000
20.48000 2407.000
20.52000 2382.000
20.56000 2288.000
20.60000 2381.000
20.64000 2293.000
20.68000 2374.000
20.72000 2378.000
20.76000 2385.000
20.80000 2446.000
20.84000 2396.000
20.88000 2477.000
20.92000 2309.000
20.96000 2374.000
21.00000 2434.000
21.04000 2318.000
21.08000 2425.000
21.12000 2409.000
21.16000 2331.000
21.20000 2391.000
21.24000 2413.000
21.28000 2521.000
21.32000 2439.000
21.36000 2453.000
21.40000 2459.000
21.44000 2488.000
21.48000 2376.000
21.52000 2512.000
21.56000 2449.000
21.60000 2536.000
21.64000 2459.000
21.68000 2516.000
21.72000 2497.000
21.76000 2466.000
21.80000 2506.000
21.84000 2474.000
21.88000 2452.000
21.92000 2581.000
21.96000 2529.000
22.00000 2545.000
22.04000 2614.000
22.08000 2598.000
22.12000 2537.000
22.16000 2621.000
22.20000 2509.000
22.24000 2448.000
22.28000 2537.000
22.32000 2554.000
22.36000 2585.000
22.40000 2666.000
22.44000 2490.000
22.48000 2550.000
22.52000 2643.000
22.56000 2662.000
22.60000 2744.000
22.64000 2778.000
22.68000 2764.000
22.72000 2811.000
22.76000 2872.000
22.80000 2886.000
22.84000 2945.000
22.88000 2995.000
22.92000 2868.000
22.96000 2893.000
23.00000 2826.000
23.04000 2738.000
23.08000 2731.000
23.12000 2795.000
23.16000 2653.000
23.20000 2668.000
23.24000 2712.000
23.28000 2761.000
23.32000 2702.000
23.36000 2687.000
23.40000 2652.000
23.44000 2671.000
23.48000 2618.000
23.52000 2628.000
23.56000 2652.000
23.60000 2677.000
23.64000 2658.000
23.68000 2576.000
23.72000 2679.000
23.76000 2590.000
23.80000 2682.000
23.84000 2586.000
23.88000 2636.000
23.92000 2579.000
23.96000 2709.000
24.00000 2651.000
24.04000 2691.000
24.08000 2740.000
24.12000 2842.000
24.16000 2874.000
24.20000 3049.000
24.24000 3315.000
24.28000 3531.000
24.32000 3865.000
24.36000 4194.000
24.40000 4604.000
24.44000 4566.000
24.48000 4574.000
24.52000 4620.000
24.56000 4378.000
24.60000 4077.000
24.64000 3788.000
24.68000 3385.000
24.72000 3147.000
24.76000 3016.000
24.80000 2732.000
24.84000 2804.000
24.88000 2628.000
24.92000 2666.000
24.96000 2653.000
25.00000 2722.000
25.04000 2772.000
25.08000 2694.000
25.12000 2646.000
25.16000 2873.000
25.20000 3009.000
25.24000 3006.000
25.28000 3220.000
25.32000 3437.000
25.36000 3644.000
25.40000 3770.000
25.44000 3801.000
25.48000 3874.000
25.52000 3888.000
25.56000 3830.000
25.60000 3713.000
25.64000 3436.000
25.68000 3360.000
25.72000 3141.000
25.76000 2983.000
25.80000 2750.000
25.84000 2815.000
25.88000 2714.000
25.92000 2717.000
25.96000 2644.000
26.00000 2672.000
26.04000 2629.000
26.08000 2629.000
26.12000 2531.000
26.16000 2627.000
26.20000 2702.000
26.24000 2664.000
26.28000 2485.000
26.32000 2535.000
26.36000 2560.000
26.40000 2559.000
26.44000 2583.000
26.48000 2429.000
26.52000 2606.000
26.56000 2573.000
26.60000 2457.000
26.64000 2508.000
26.68000 2495.000
26.72000 2596.000
26.76000 2428.000
26.80000 2510.000
26.84000 2529.000
26.88000 2519.000
26.92000 2580.000
26.96000 2522.000
27.00000 2477.000
27.04000 2472.000
27.08000 2510.000
27.12000 2531.000
27.16000 2485.000
27.20000 2387.000
27.24000 2433.000
27.28000 2501.000
27.32000 2451.000
27.36000 2406.000
27.40000 2513.000
27.44000 2406.000
27.48000 2558.000
27.52000 2508.000
27.56000 2505.000
27.60000 2582.000
27.64000 2527.000
27.68000 2479.000
27.72000 2472.000
27.76000 2616.000
27.80000 2587.000
27.84000 2702.000
27.88000 2732.000
27.92000 2764.000
27.96000 2982.000
28.00000 3183.000
28.04000 3373.000
28.08000 3712.000
28.12000 4146.000
28.16000 4665.000
28.20000 5265.000
28.24000 5591.000
28.28000 6063.000
28.32000 6159.000
28.36000 6187.000
28.40000 5904.000
28.44000 5582.000
28.48000 4945.000
28.52000 4389.000
28.56000 3853.000
28.60000 3423.000
28.64000 2914.000
28.68000 2930.000
28.72000 2638.000
28.76000 2624.000
28.80000 2455.000
28.84000 2451.000
28.88000 2380.000
28.92000 2427.000
28.96000 2386.000
29.00000 2381.000
29.04000 2463.000
29.08000 2295.000
29.12000 2314.000
29.16000 2264.000
29.20000 2308.000
29.24000 2225.000
29.28000 2291.000
29.32000 2254.000
29.36000 2325.000
29.40000 2244.000
29.44000 2345.000
29.48000 2290.000
29.52000 2243.000
29.56000 2249.000
29.60000 2243.000
29.64000 2224.000
29.68000 2223.000
29.72000 2212.000
29.76000 2244.000
29.80000 2207.000
29.84000 2164.000
29.88000 2229.000
29.92000 2228.000
29.96000 2212.000
30.00000 2207.000
30.04000 2166.000
30.08000 2196.000
30.12000 2201.000
30.16000 2177.000
30.20000 2186.000
30.24000 2200.000
30.28000 2226.000
30.32000 2053.000
30.36000 2266.000
30.40000 2202.000
30.44000 2163.000
30.48000 2152.000
30.52000 2162.000
30.56000 2127.000
30.60000 2104.000
30.64000 2136.000
30.68000 2191.000
30.72000 2157.000
30.76000 2143.000
30.80000 2219.000
30.84000 2167.000
30.88000 2214.000
30.92000 2206.000
30.96000 2288.000
31.00000 2144.000
31.04000 2201.000
31.08000 2111.000
31.12000 2122.000
31.16000 2285.000
31.20000 2149.000
31.24000 2152.000
31.28000 2241.000
31.32000 2289.000
31.36000 2324.000
31.40000 2361.000
31.44000 2487.000
31.48000 2534.000
31.52000 3018.000
31.56000 3355.000
31.60000 4003.000
31.64000 4500.000
31.68000 5249.000
31.72000 5572.000
31.76000 5992.000
31.80000 5849.000
31.84000 5728.000
31.88000 5221.000
31.92000 4837.000
31.96000 4062.000
32.00000 3514.000
32.04000 3074.000
32.08000 2635.000
32.12000 2400.000
32.16000 2271.000
32.20000 2215.000
32.24000 2140.000
32.28000 2032.000
32.32000 1927.000
32.36000 1989.000
32.40000 1888.000
32.44000 1982.000
32.48000 1860.000
32.52000 1900.000
32.56000 1859.000
32.60000 1898.000
32.64000 1930.000
32.68000 1856.000
32.72000 1851.000
32.76000 1924.000
32.80000 1824.000
32.84000 1850.000
32.88000 1861.000
32.92000 1836.000
32.96000 1881.000
33.00000 1757.000
33.04000 1862.000
33.08000 1819.000
33.12000 1802.000
33.16000 1824.000
33.20000 1780.000
33.24000 1825.000
33.28000 1832.000
33.32000 1810.000
33.36000 1803.000
33.40000 1758.000
33.44000 1808.000
33.48000 1708.000
33.52000 1720.000
33.56000 1679.000
33.60000 1771.000
33.64000 1649.000
33.68000 1771.000
33.72000 1792.000
33.76000 1649.000
33.80000 1706.000
33.84000 1670.000
33.88000 1688.000
33.92000 1701.000
33.96000 1735.000
34.00000 1620.000
34.04000 1728.000
34.08000 1678.000
34.12000 1682.000
34.16000 1737.000
34.20000 1635.000
34.24000 1645.000
34.28000 1641.000
34.32000 1657.000
34.36000 1671.000
34.40000 1654.000
34.44000 1664.000
34.48000 1731.000
34.52000 1665.000
34.56000 1667.000
34.60000 1682.000
34.64000 1810.000
34.68000 1900.000
34.72000 1990.000
34.76000 2105.000
34.80000 2205.000
34.84000 2491.000
34.88000 2537.000
34.92000 2545.000
34.96000 2470.000
35.00000 2413.000
35.04000 2303.000
35.08000 2112.000
35.12000 2067.000
35.16000 1867.000
35.20000 1800.000
35.24000 1702.000
35.28000 1557.000
35.32000 1582.000
35.36000 1565.000
35.40000 1521.000
35.44000 1471.000
35.48000 1561.000
35.52000 1500.000
35.56000 1488.000
35.60000 1508.000
35.64000 1424.000
35.68000 1392.000
35.72000 1470.000
35.76000 1480.000
35.80000 1373.000
35.84000 1433.000
35.88000 1457.000
35.92000 1436.000
35.96000 1482.000
36.00000 1432.000
36.04000 1401.000
36.08000 1395.000
36.12000 1417.000
36.16000 1343.000
36.20000 1442.000
36.24000 1355.000
36.28000 1398.000
36.32000 1411.000
36.36000 1382.000
36.40000 1353.000
36.44000 1324.000
36.48000 1419.000
36.52000 1359.000
36.56000 1434.000
36.60000 1353.000
36.64000 1377.000
36.68000 1429.000
36.72000 1445.000
36.76000 1425.000
36.80000 1404.000
36.84000 1353.000
36.88000 1406.000
36.92000 1382.000
36.96000 1357.000
37.00000 1304.000
37.04000 1368.000
37.08000 1375.000
37.12000 1343.000
37.16000 1394.000
37.20000 1314.000
37.24000 1330.000
37.28000 1419.000
37.32000 1385.000
37.36000 1348.000
37.40000 1419.000
37.44000 1350.000
37.48000 1295.000
37.52000 1395.000
37.56000 1385.000
37.60000 1363.000
37.64000 1394.000
37.68000 1403.000
37.72000 1459.000
37.76000 1386.000
37.80000 1403.000
37.84000 1486.000
37.88000 1479.000
37.92000 1490.000
37.96000 1532.000
38.00000 1496.000
38.04000 1528.000
38.08000 1573.000
38.12000 1644.000
38.16000 1674.000
38.20000 1883.000
38.24000 1958.000
38.28000 1992.000
38.32000 2352.000
38.36000 2743.000
38.40000 3329.000
38.44000 4096.000
38.48000 5040.000
38.52000 5953.000
38.56000 6885.000
38.60000 7759.000
38.64000 8306.000
38.68000 8448.000
38.72000 8739.000
38.76000 8112.000
38.80000 7576.000
38.84000 6760.000
38.88000 5782.000
38.92000 4694.000
38.96000 3836.000
39.00000 3046.000
39.04000 2574.000
39.08000 2229.000
39.12000 1944.000
39.16000 1834.000
39.20000 1656.000
39.24000 1638.000
39.28000 1727.000
39.32000 1781.000
39.36000 1856.000
39.40000 1790.000
39.44000 1921.000
39.48000 1946.000
39.52000 1868.000
39.56000 1859.000
39.60000 1729.000
39.64000 1751.000
39.68000 1596.000
39.72000 1547.000
39.76000 1448.000
39.80000 1512.000
39.84000 1356.000
39.88000 1420.000
39.92000 1409.000
39.96000 1376.000
40.00000 1380.000
40.04000 1433.000
40.08000 1396.000
40.12000 1549.000
40.16000 1529.000
40.20000 1561.000
40.24000 1903.000
40.28000 2076.000
40.32000 2435.000
40.36000 3022.000
40.40000 3489.000
40.44000 4079.000
40.48000 4628.000
40.52000 4958.000
40.56000 5120.000
40.60000 5112.000
40.64000 4795.000
40.68000 4352.000
40.72000 3784.000
40.76000 3246.000
40.80000 2719.000
40.84000 2276.000
40.88000 1999.000
40.92000 1757.000
40.96000 1627.000
41.00000 1605.000
41.04000 1513.000
41.08000 1495.000
41.12000 1464.000
41.16000 1421.000
41.20000 1465.000
41.24000 1439.000
41.28000 1389.000
41.32000 1414.000
41.36000 1415.000
41.40000 1421.000
41.44000 1334.000
41.48000 1397.000
41.52000 1311.000
41.56000 1352.000
41.60000 1390.000
41.64000 1366.000
41.68000 1336.000
41.72000 1350.000
41.76000 1338.000
41.80000 1285.000
41.84000 1272.000
41.88000 1295.000
41.92000 1280.000
41.96000 1363.000
42.00000 1313.000
42.04000 1176.000
42.08000 1227.000
42.12000 1213.000
42.16000 1227.000
42.20000 1275.000
42.24000 1222.000
42.28000 1271.000
42.32000 1273.000
42.36000 1334.000
42.40000 1271.000
42.44000 1260.000
42.48000 1253.000
42.52000 1274.000
42.56000 1237.000
42.60000 1314.000
42.64000 1247.000
42.68000 1337.000
42.72000 1351.000
42.76000 1376.000
42.80000 1473.000
42.84000 1504.000
42.88000 1629.000
42.92000 1852.000
42.96000 2063.000
43.00000 2362.000
43.04000 2533.000
43.08000 2841.000
43.12000 2970.000
43.16000 2885.000
43.20000 2877.000
43.24000 2776.000
43.28000 2485.000
43.32000 2135.000
43.36000 1974.000
43.40000 1742.000
43.44000 1566.000
43.48000 1463.000
43.52000 1365.000
43.56000 1368.000
43.60000 1283.000
43.64000 1255.000
43.68000 1213.000
43.72000 1249.000
43.76000 1172.000
43.80000 1218.000
43.84000 1284.000
43.88000 1263.000
43.92000 1186.000
43.96000 1277.000
44.00000 1170.000
44.04000 1208.000
44.08000 1200.000
44.12000 1169.000
44.16000 1229.000
44.20000 1191.000
44.24000 1181.000
44.28000 1196.000
44.32000 1181.000
44.36000 1209.000
44.40000 1168.000
44.44000 1186.000
44.48000 1217.000
44.52000 1212.000
44.56000 1173.000
44.60000 1189.000
44.64000 1151.000
44.68000 1152.000
44.72000 1154.000
44.76000 1141.000
44.80000 1168.000
44.84000 1216.000
44.88000 1173.000
44.92000 1189.000
44.96000 1204.000
45.00000 1181.000
45.04000 1138.000
45.08000 1128.000
45.12000 1138.000
45.16000 1131.000
45.20000 1152.000
45.24000 1078.000
45.28000 1210.000
45.32000 1138.000
45.36000 1127.000
45.40000 1155.000
45.44000 1145.000
45.48000 1190.000
45.52000 1138.000
45.56000 1208.000
45.60000 1111.000
45.64000 1204.000
45.68000 1125.000
45.72000 1143.000
45.76000 1161.000
45.80000 1137.000
45.84000 1167.000
45.88000 1163.000
45.92000 1177.000
45.96000 1108.000
46.00000 1143.000
46.04000 1161.000
46.08000 1122.000
46.12000 1185.000
46.16000 1094.000
46.20000 1137.000
46.24000 1094.000
46.28000 1193.000
46.32000 1078.000
46.36000 1122.000
46.40000 1113.000
46.44000 1139.000
46.48000 1114.000
46.52000 1097.000
46.56000 1128.000
46.60000 1104.000
46.64000 1080.000
46.68000 1093.000
46.72000 1110.000
46.76000 1096.000
46.80000 1081.000
46.84000 1021.000
46.88000 1105.000
46.92000 1086.000
46.96000 1107.000
47.00000 1063.000
47.04000 1112.000
47.08000 1052.000
47.12000 1102.000
47.16000 1096.000
47.20000 1043.000
47.24000 1075.000
47.28000 1075.000
47.32000 1052.000
47.36000 1116.000
47.40000 1030.000
47.44000 1042.000
47.48000 1165.000
47.52000 1108.000
47.56000 1102.000
47.60000 983.000
47.64000 1006.000
47.68000 1044.000
47.72000 1070.000
47.76000 1081.000
47.80000 1072.000
47.84000 1011.000
47.88000 1157.000
47.92000 1077.000
47.96000 1093.000
48.00000 1082.000
48.04000 1098.000
48.08000 1088.000
48.12000 1076.000
48.16000 1073.000
48.20000 1079.000
48.24000 1035.000
48.28000 997.000
48.32000 1018.000
48.36000 1024.000
48.40000 1114.000
48.44000 1029.000
48.48000 1022.000
48.52000 1017.000
48.56000 1036.000
48.60000 1009.000
48.64000 1048.000
48.68000 1074.000
48.72000 1044.000
48.76000 1024.000
48.80000 1030.000
48.84000 1057.000
48.88000 1016.000
48.92000 1021.000
48.96000 1015.000
49.00000 1062.000
49.04000 1033.000
49.08000 964.000
49.12000 1049.000
49.16000 1108.000
49.20000 1042.000
49.24000 1053.000
49.28000 1101.000
49.32000 1046.000
49.36000 1073.000
49.40000 1110.000
49.44000 1090.000
49.48000 1046.000
49.52000 994.000
49.56000 1052.000
49.60000 1074.000
49.64000 1058.000
49.68000 1089.000
49.72000 1020.000
49.76000 1109.000
49.80000 1099.000
49.84000 1085.000
49.88000 1067.000
49.92000 1119.000
49.96000 1202.000
50.00000 1250.000
50.04000 1400.000
50.08000 1416.000
50.12000 1559.000
50.16000 1646.000
50.20000 1713.000
50.24000 1742.000
50.28000 1736.000
50.32000 1707.000
50.36000 1598.000
50.40000 1488.000
50.44000 1510.000
50.48000 1383.000
50.52000 1303.000
50.56000 1243.000
50.60000 1224.000
50.64000 1138.000
50.68000 1127.000
50.72000 1123.000
50.76000 1063.000
50.80000 1039.000
50.84000 1050.000
50.88000 1092.000
50.92000 1091.000
50.96000 1048.000
51.00000 1101.000
51.04000 1063.000
51.08000 1043.000
51.12000 1104.000
51.16000 1041.000
51.20000 1084.000
51.24000 1098.000
51.28000 1102.000
51.32000 1097.000
51.36000 1115.000
51.40000 1097.000
51.44000 1112.000
51.48000 1159.000
51.52000 1163.000
51.56000 1227.000
51.60000 1171.000
51.64000 1225.000
51.68000 1296.000
51.72000 1269.000
51.76000 1277.000
51.80000 1344.000
51.84000 1331.000
51.88000 1497.000
51.92000 1508.000
51.96000 1672.000
52.00000 1806.000
52.04000 1989.000
52.08000 2261.000
52.12000 2720.000
52.16000 3250.000
52.20000 3819.000
52.24000 4632.000
52.28000 5353.000
52.32000 6087.000
52.36000 6611.000
52.40000 7031.000
52.44000 7288.000
52.48000 7011.000
52.52000 6816.000
52.56000 6233.000
52.60000 5538.000
52.64000 4796.000
52.68000 4032.000
52.72000 3448.000
52.76000 2806.000
52.80000 2255.000
52.84000 1952.000
52.88000 1740.000
52.92000 1536.000
52.96000 1370.000
53.00000 1383.000
53.04000 1156.000
53.08000 1265.000
53.12000 1202.000
53.16000 1162.000
53.20000 1125.000
53.24000 1073.000
53.28000 1140.000
53.32000 1048.000
53.36000 1109.000
53.40000 1036.000
53.44000 1030.000
53.48000 1019.000
53.52000 1075.000
53.56000 1022.000
53.60000 1032.000
53.64000 990.000
53.68000 1087.000
53.72000 1037.000
53.76000 1062.000
53.80000 1009.000
53.84000 1040.000
53.88000 997.000
53.92000 986.000
53.96000 1003.000
54.00000 1003.000
54.04000 961.000
54.08000 977.000
54.12000 1007.000
54.16000 1014.000
54.20000 1028.000
54.24000 1032.000
54.28000 970.000
54.32000 1033.000
54.36000 1032.000
54.40000 1021.000
54.44000 1036.000
54.48000 1067.000
54.52000 1162.000
54.56000 1156.000
54.60000 1125.000
54.64000 1121.000
54.68000 1105.000
54.72000 1120.000
54.76000 1089.000
54.80000 1059.000
54.84000 1078.000
54.88000 1037.000
54.92000 1002.000
54.96000 977.000
55.00000 966.000
55.04000 957.000
55.08000 1016.000
55.12000 970.000
55.16000 958.000
55.20000 1020.000
55.24000 940.000
55.28000 954.000
55.32000 942.000
55.36000 920.000
55.40000 896.000
55.44000 996.000
55.48000 933.000
55.52000 961.000
55.56000 972.000
55.60000 959.000
55.64000 991.000
55.68000 967.000
55.72000 919.000
55.76000 973.000
55.80000 953.000
55.84000 967.000
55.88000 971.000
55.92000 925.000
55.96000 974.000
56.00000 1021.000
56.04000 1017.000
56.08000 982.000
56.12000 963.000
56.16000 938.000
56.20000 999.000
56.24000 1001.000
56.28000 910.000
56.32000 933.000
56.36000 1010.000
56.40000 974.000
56.44000 1036.000
56.48000 969.000
56.52000 966.000
56.56000 1022.000
56.60000 952.000
56.64000 901.000
56.68000 1021.000
56.72000 941.000
56.76000 922.000
56.80000 1008.000
56.84000 923.000
56.88000 987.000
56.92000 945.000
56.96000 935.000
57.00000 948.000
57.04000 983.000
57.08000 997.000
57.12000 962.000
57.16000 996.000
57.20000 967.000
57.24000 925.000
57.28000 900.000
57.32000 912.000
57.36000 952.000
57.40000 998.000
57.44000 981.000
57.48000 989.000
57.52000 1020.000
57.56000 1000.000
57.60000 967.000
57.64000 989.000
57.68000 1002.000
57.72000 939.000
57.76000 962.000
57.80000 985.000
57.84000 935.000
57.88000 939.000
57.92000 993.000
57.96000 928.000
58.00000 944.000
58.04000 981.000
58.08000 966.000
58.12000 994.000
58.16000 1000.000
58.20000 969.000
58.24000 939.000
58.28000 990.000
58.32000 980.000
58.36000 985.000
58.40000 942.000
58.44000 1017.000
58.48000 960.000
58.52000 1016.000
58.56000 999.000
58.60000 1088.000
58.64000 1041.000
58.68000 1005.000
58.72000 1053.000
58.76000 1097.000
58.80000 1011.000
58.84000 1032.000
58.88000 1143.000
58.92000 1027.000
58.96000 981.000
59.00000 942.000
59.04000 991.000
59.08000 936.000
59.12000 960.000
59.16000 943.000
59.20000 979.000
59.24000 955.000
59.28000 981.000
59.32000 970.000
59.36000 967.000
59.40000 965.000
59.44000 1002.000
59.48000 974.000
59.52000 948.000
59.56000 934.000
59.60000 967.000
59.64000 1022.000
59.68000 881.000
59.72000 967.000
59.76000 863.000
59.80000 943.000
59.84000 1013.000
59.88000 971.000
59.92000 948.000
59.96000 966.000
60.00000 969.000
60.04000 991.000
60.08000 933.000
60.12000 973.000
60.16000 983.000
60.20000 994.000
60.24000 972.000
60.28000 970.000
60.32000 969.000
60.36000 1007.000
60.40000 972.000
60.44000 1058.000
60.48000 1070.000
60.52000 1149.000
60.56000 1139.000
60.60000 1241.000
60.64000 1273.000
60.68000 1247.000
60.72000 1329.000
60.76000 1353.000
60.80000 1217.000
60.84000 1269.000
60.88000 1240.000
60.92000 1137.000
60.96000 1162.000
61.00000 1131.000
61.04000 1062.000
61.08000 1033.000
61.12000 1040.000
61.16000 1075.000
61.20000 996.000
61.24000 958.000
61.28000 1039.000
61.32000 923.000
61.36000 1013.000
61.40000 895.000
61.44000 977.000
61.48000 973.000
61.52000 964.000
61.56000 950.000
61.60000 953.000
61.64000 997.000
61.68000 1010.000
61.72000 972.000
61.76000 968.000
61.80000 949.000
61.84000 958.000
61.88000 991.000
61.92000 984.000
61.96000 985.000
62.00000 1000.000
62.04000 984.000
62.08000 912.000
62.12000 1002.000
62.16000 973.000
62.20000 995.000
62.24000 978.000
62.28000 944.000
62.32000 935.000
62.36000 956.000
62.40000 1001.000
62.44000 1067.000
62.48000 1020.000
62.52000 1015.000
62.56000 1023.000
62.60000 1091.000
62.64000 1040.000
62.68000 1039.000
62.72000 1108.000
62.76000 1104.000
62.80000 1021.000
62.84000 1035.000
62.88000 976.000
62.92000 1023.000
62.96000 1014.000
63.00000 1013.000
63.04000 996.000
63.08000 921.000
63.12000 961.000
63.16000 951.000
63.20000 928.000
63.24000 927.000
63.28000 975.000
63.32000 960.000
63.36000 990.000
63.40000 966.000
63.44000 944.000
63.48000 957.000
63.52000 917.000
63.56000 939.000
63.60000 929.000
63.64000 995.000
63.68000 968.000
63.72000 933.000
63.76000 922.000
63.80000 979.000
63.84000 994.000
63.88000 974.000
63.92000 890.000
63.96000 974.000
64.00000 935.000
64.04000 932.000
64.08000 928.000
64.12000 918.000
64.16000 914.000
64.20000 1000.000
64.24000 909.000
64.28000 922.000
64.32000 980.000
64.36000 965.000
64.40000 998.000
64.44000 896.000
64.48000 968.000
64.52000 905.000
64.56000 945.000
64.60000 1027.000
64.64000 980.000
64.68000 951.000
64.72000 972.000
64.76000 950.000
64.80000 957.000
64.84000 983.000
64.88000 1007.000
64.92000 921.000
64.96000 948.000
65.00000 936.000
65.04000 939.000
65.08000 964.000
65.12000 980.000
65.16000 950.000
65.20000 928.000
65.24000 937.000
65.28000 958.000
65.32000 977.000
65.36000 881.000
65.40000 955.000
65.44000 914.000
65.48000 923.000
65.52000 939.000
65.56000 945.000
65.60000 948.000
65.64000 899.000
65.68000 897.000
65.72000 928.000
65.76000 970.000
65.80000 931.000
65.84000 887.000
65.88000 905.000
65.92000 950.000
65.96000 896.000
66.00000 912.000
66.04000 944.000
66.08000 996.000
66.12000 922.000
66.16000 899.000
66.20000 936.000
66.24000 1050.000
66.28000 983.000
66.32000 1014.000
66.36000 1104.000
66.40000 1068.000
66.44000 1090.000
66.48000 1157.000
66.52000 1121.000
66.56000 1114.000
66.60000 1056.000
66.64000 1133.000
66.68000 1062.000
66.72000 1042.000
66.76000 978.000
66.80000 1045.000
66.84000 991.000
66.88000 934.000
66.92000 987.000
66.96000 1007.000
67.00000 926.000
67.04000 971.000
67.08000 952.000
67.12000 928.000
67.16000 884.000
67.20000 947.000
67.24000 914.000
67.28000 956.000
67.32000 991.000
67.36000 952.000
67.40000 944.000
67.44000 937.000
67.48000 932.000
67.52000 959.000
67.56000 936.000
67.60000 858.000
67.64000 908.000
67.68000 946.000
67.72000 932.000
67.76000 935.000
67.80000 856.000
67.84000 906.000
67.88000 911.000
67.92000 890.000
67.96000 907.000
68.00000 932.000
68.04000 932.000
68.08000 953.000
68.12000 964.000
68.16000 1008.000
68.20000 1015.000
68.24000 1058.000
68.28000 1052.000
68.32000 1105.000
68.36000 1136.000
68.40000 1093.000
68.44000 1073.000
68.48000 1097.000
68.52000 1053.000
68.56000 1082.000
68.60000 1066.000
68.64000 1027.000
68.68000 958.000
68.72000 885.000
68.76000 847.000
68.80000 933.000
68.84000 877.000
68.88000 905.000
68.92000 896.000
68.96000 838.000
69.00000 873.000
69.04000 830.000
69.08000 864.000
69.12000 840.000
69.16000 865.000
69.20000 832.000
69.24000 881.000
69.28000 796.000
69.32000 875.000
69.36000 862.000
69.40000 875.000
69.44000 840.000
69.48000 852.000
69.52000 815.000
69.56000 800.000
69.60000 843.000
69.64000 846.000
69.68000 816.000
69.72000 838.000
69.76000 825.000
69.80000 849.000
69.84000 774.000
69.88000 862.000
69.92000 860.000
