5.00000 5249.000
5.04000 5138.000
5.08000 5358.000
5.12000 5091.000
5.16000 5093.000
5.20000 5084.000
5.24000 5130.000
5.28000 4977.000
5.32000 4949.000
5.36000 4949.000
5.40000 4936.000
5.44000 4893.000
5.48000 4872.000
5.52000 4947.000
5.56000 4845.000
5.60000 4824.000
5.64000 4743.000
5.68000 4707.000
5.72000 4715.000
5.76000 4635.000
5.80000 4692.000
5.84000 4593.000
5.88000 4550.000
5.92000 4483.000
5.96000 4598.000
6.00000 4416.000
6.04000 4417.000
6.08000 4387.000
6.12000 4361.000
6.16000 4310.000
6.20000 4266.000
6.24000 4304.000
6.28000 4328.000
6.32000 4313.000
6.36000 4160.000
6.40000 4117.000
6.44000 4153.000
6.48000 4157.000
6.52000 4004.000
6.56000 4080.000
6.60000 4067.000
6.64000 4048.000
6.68000 3975.000
6.72000 4124.000
6.76000 3969.000
6.80000 3929.000
6.84000 3996.000
6.88000 3885.000
6.92000 3823.000
6.96000 3840.000
7.00000 3831.000
7.04000 3899.000
7.08000 3841.000
7.12000 3712.000
7.16000 3754.000
7.20000 3680.000
7.24000 3842.000
7.28000 3713.000
7.32000 3666.000
7.36000 3695.000
7.40000 3663.000
7.44000 3538.000
7.48000 3562.000
7.52000 3626.000
7.56000 3592.000
7.60000 3472.000
7.64000 3498.000
7.68000 3497.000
7.72000 3477.000
7.76000 3492.000
7.80000 3344.000
7.84000 3433.000
7.88000 3348.000
7.92000 3394.000
7.96000 3426.000
8.00000 3288.000
8.04000 3208.000
8.08000 3344.000
8.12000 3361.000
8.16000 3353.000
8.20000 3232.000
8.24000 3203.000
8.28000 3300.000
8.32000 3272.000
8.36000 3189.000
8.40000 3230.000
8.44000 3157.000
8.48000 3178.000
8.52000 3134.000
8.56000 3155.000
8.60000 3054.000
8.64000 3122.000
8.68000 3079.000
8.72000 3029.000
8.76000 3113.000
8.80000 3053.000
8.84000 3087.000
8.88000 3097.000
8.92000 2977.000
8.96000 2973.000
9.00000 2990.000
9.04000 3028.000
9.08000 2950.000
9.12000 3017.000
9.16000 2931.000
9.20000 2891.000
9.24000 2968.000
9.28000 2863.000
9.32000 2834.000
9.36000 2987.000
9.40000 2896.000
9.44000 2883.000
9.48000 2760.000
9.52000 2897.000
9.56000 2855.000
9.60000 2764.000
9.64000 2882.000
9.68000 2903.000
9.72000 2934.000
9.76000 2986.000
9.80000 2944.000
9.84000 3028.000
9.88000 3133.000
9.92000 3099.000
9.96000 3245.000
10.00000 3457.000
10.04000 3537.000
10.08000 3633.000
10.12000 3676.000
10.16000 3690.000
10.20000 3596.000
10.24000 3406.000
10.28000 3403.000
10.32000 3203.000
10.36000 2954.000
10.40000 2775.000
10.44000 2608.000
10.48000 2730.000
10.52000 2645.000
10.56000 2576.000
10.60000 2609.000
10.64000 2581.000
10.68000 2599.000
10.72000 2501.000
10.76000 2529.000
10.80000 2555.000
10.84000 2540.000
10.88000 2534.000
10.92000 2450.000
10.96000 2553.000
11.00000 2560.000
11.04000 2487.000
11.08000 2551.000
11.12000 2598.000
11.16000 2664.000
11.20000 2523.000
11.24000 2741.000
11.28000 2766.000
11.32000 2830.000
11.36000 2903.000
11.40000 3034.000
11.44000 3053.000
11.48000 3157.000
11.52000 3075.000
11.56000 3135.000
11.60000 3064.000
11.64000 3104.000
11.68000 2908.000
11.72000 2901.000
11.76000 2710.000
11.80000 2776.000
11.84000 2791.000
11.88000 2747.000
11.92000 2706.000
11.96000 2744.000
12.00000 2652.000
12.04000 2836.000
12.08000 2811.000
12.12000 2829.000
12.16000 2960.000
12.20000 2981.000
12.24000 3024.000
12.28000 3056.000
12.32000 3207.000
12.36000 3422.000
12.40000 3877.000
12.44000 4164.000
12.48000 4526.000
12.52000 4864.000
12.56000 5192.000
12.60000 5269.000
12.64000 5253.000
12.68000 5064.000
12.72000 4715.000
12.76000 4376.000
12.80000 3950.000
12.84000 3559.000
12.88000 3311.000
12.92000 2980.000
12.96000 2995.000
13.00000 2807.000
13.04000 2757.000
13.08000 2748.000
13.12000 2765.000
13.16000 2853.000
13.20000 2967.000
13.24000 2958.000
13.28000 3060.000
13.32000 3203.000
13.36000 3215.000
13.40000 3376.000
13.44000 3389.000
13.48000 3551.000
13.52000 3695.000
13.56000 3813.000
13.60000 3918.000
13.64000 4247.000
13.68000 4548.000
13.72000 5078.000
13.76000 5547.000
13.80000 6161.000
13.84000 7080.000
13.88000 7480.000
13.92000 8114.000
13.96000 8197.000
14.00000 8117.000
14.04000 7729.000
14.08000 7261.000
14.12000 6463.000
14.16000 5694.000
14.20000 4709.000
14.24000 4086.000
14.28000 3471.000
14.32000 3069.000
14.36000 2873.000
14.40000 2665.000
14.44000 2509.000
14.48000 2455.000
14.52000 2481.000
14.56000 2246.000
14.60000 2240.000
14.64000 2248.000
14.68000 2165.000
14.72000 2175.000
14.76000 2158.000
14.80000 2123.000
14.84000 2033.000
14.88000 2152.000
14.92000 2073.000
14.96000 2022.000
15.00000 2043.000
15.04000 2056.000
15.08000 2024.000
15.12000 2089.000
15.16000 1955.000
15.20000 1983.000
15.24000 1919.000
15.28000 2019.000
15.32000 1979.000
15.36000 1963.000
15.40000 1978.000
15.44000 1982.000
15.48000 2044.000
15.52000 1964.000
15.56000 1997.000
15.60000 1984.000
15.64000 2045.000
15.68000 2001.000
15.72000 2001.000
15.76000 2029.000
15.80000 2003.000
15.84000 1941.000
15.88000 1853.000
15.92000 1994.000
15.96000 1985.000
16.00000 1899.000
16.04000 1935.000
16.08000 1927.000
16.12000 1875.000
16.16000 1935.000
16.20000 1954.000
16.24000 1966.000
16.28000 1965.000
16.32000 1879.000
16.36000 1947.000
16.40000 1966.000
16.44000 1882.000
16.48000 1921.000
16.52000 1981.000
16.56000 1872.000
16.60000 1955.000
16.64000 1989.000
16.68000 1985.000
16.72000 1977.000
16.76000 1945.000
16.80000 2016.000
16.84000 1956.000
16.88000 1905.000
16.92000 1899.000
16.96000 2015.000
17.00000 2019.000
17.04000 1905.000
17.08000 1993.000
17.12000 1994.000
17.16000 1994.000
17.20000 1903.000
17.24000 1953.000
17.28000 2023.000
17.32000 2066.000
17.36000 1933.000
17.40000 1978.000
17.44000 1991.000
17.48000 2039.000
17.52000 1987.000
17.56000 2011.000
17.60000 2065.000
17.64000 2096.000
17.68000 2010.000
17.72000 1977.000
17.76000 1984.000
17.80000 2056.000
17.84000 1958.000
17.88000 2032.000
17.92000 1989.000
17.96000 1992.000
18.00000 2043.000
18.04000 1977.000
18.08000 1969.000
18.12000 2056.000
18.16000 2019.000
18.20000 1998.000
18.24000 2006.000
18.28000 2059.000
18.32000 2118.000
18.36000 1999.000
18.40000 2128.000
18.44000 2080.000
18.48000 2157.000
18.52000 2041.000
18.56000 2145.000
18.60000 2164.000
18.64000 2051.000
18.68000 2093.000
18.72000 2058.000
18.76000 2191.000
18.80000 2098.000
18.84000 2145.000
18.88000 2202.000
18.92000 2148.000
18.96000 2159.000
19.00000 2018.000
19.04000 2187.000
19.08000 2217.000
19.12000 2163.000
19.16000 2170.000
19.20000 2083.000
19.24000 2248.000
19.28000 2227.000
19.32000 2219.000
19.36000 2269.000
19.40000 2215.000
19.44000 2326.000
19.48000 2316.000
19.52000 2386.000
19.56000 2463.000
19.60000 2560.000
19.64000 2723.000
19.68000 2911.000
19.72000 3089.000
19.76000 3366.000
19.80000 3488.000
19.84000 3734.000
19.88000 3804.000
19.92000 3761.000
19.96000 3665.000
20.00000 3465.000
20.04000 3257.000
20.08000 2997.000
20.12000 2818.000
20.16000 2555.000
20.20000 2517.000
20.24000 2429.000
20.28000 2313.000
20.32000 2382.000
20.36000 2362.000
20.40000 2431.000
20.44000 2355.000
20.48000 2388.000
20.52000 2431.000
20.56000 2284.000
20.60000 2370.000
20.64000 2377.000
20.68000 2395.000
20.72000 2409.000
20.76000 2461.000
20.80000 2384.000
20.84000 2310.000
20.88000 2397.000
20.92000 2437.000
20.96000 2377.000
21.00000 2428.000
21.04000 2375.000
21.08000 2546.000
21.12000 2416.000
21.16000 2417.000
21.20000 2539.000
21.24000 2487.000
21.28000 2525.000
21.32000 2533.000
21.36000 2461.000
21.40000 2454.000
21.44000 2523.000
21.48000 2406.000
21.52000 2488.000
21.56000 2439.000
21.60000 2384.000
21.64000 2536.000
21.68000 2412.000
21.72000 2541.000
21.76000 2449.000
21.80000 2484.000
21.84000 2503.000
21.88000 2585.000
21.92000 2504.000
21.96000 2535.000
22.00000 2545.000
22.04000 2528.000
22.08000 2537.000
22.12000 2619.000
22.16000 2586.000
22.20000 2711.000
22.24000 2721.000
22.28000 2695.000
22.32000 2679.000
22.36000 2692.000
22.40000 2747.000
22.44000 2734.000
22.48000 2651.000
22.52000 2669.000
22.56000 2750.000
22.60000 2690.000
22.64000 2822.000
22.68000 2805.000
22.72000 2810.000
22.76000 2772.000
22.80000 2780.000
22.84000 2897.000
22.88000 2814.000
22.92000 2973.000
22.96000 2725.000
23.00000 2893.000
23.04000 2809.000
23.08000 2801.000
23.12000 2815.000
23.16000 2866.000
23.20000 2869.000
23.24000 2859.000
23.28000 2851.000
23.32000 2804.000
23.36000 2866.000
23.40000 2735.000
23.44000 2614.000
23.48000 2699.000
23.52000 2712.000
23.56000 2722.000
23.60000 2653.000
23.64000 2564.000
23.68000 2706.000
23.72000 2702.000
23.76000 2613.000
23.80000 2663.000
23.84000 2675.000
23.88000 2718.000
23.92000 2657.000
23.96000 2703.000
24.00000 2786.000
24.04000 2652.000
24.08000 2857.000
24.12000 2916.000
24.16000 3034.000
24.20000 3057.000
24.24000 3258.000
24.28000 3488.000
24.32000 3542.000
24.36000 3782.000
24.40000 3911.000
24.44000 3714.000
24.48000 3843.000
24.52000 3663.000
24.56000 3470.000
24.60000 3374.000
24.64000 3153.000
24.68000 3100.000
24.72000 2958.000
24.76000 2900.000
24.80000 2793.000
24.84000 2825.000
24.88000 2805.000
24.92000 2808.000
24.96000 2653.000
25.00000 2923.000
25.04000 2695.000
25.08000 2709.000
25.12000 2739.000
25.16000 2689.000
25.20000 2712.000
25.24000 2737.000
25.28000 2729.000
25.32000 2757.000
25.36000 2682.000
25.40000 2812.000
25.44000 2751.000
25.48000 2760.000
25.52000 2700.000
25.56000 2828.000
25.60000 2761.000
25.64000 2816.000
25.68000 2891.000
25.72000 2788.000
25.76000 2842.000
25.80000 2763.000
25.84000 2895.000
25.88000 2818.000
25.92000 2796.000
25.96000 2851.000
26.00000 2835.000
26.04000 2856.000
26.08000 2811.000
26.12000 2872.000
26.16000 2700.000
26.20000 2808.000
26.24000 2814.000
26.28000 2736.000
26.32000 2573.000
26.36000 2620.000
26.40000 2643.000
26.44000 2650.000
26.48000 2648.000
26.52000 2557.000
26.56000 2693.000
26.60000 2586.000
26.64000 2571.000
26.68000 2664.000
26.72000 2628.000
26.76000 2672.000
26.80000 2638.000
26.84000 2793.000
26.88000 2846.000
26.92000 2857.000
26.96000 3008.000
27.00000 3200.000
27.04000 3321.000
27.08000 3484.000
27.12000 3584.000
27.16000 3663.000
27.20000 3520.000
27.24000 3428.000
27.28000 3292.000
27.32000 3227.000
27.36000 2942.000
27.40000 3002.000
27.44000 3007.000
27.48000 2786.000
27.52000 2829.000
27.56000 2854.000
27.60000 2840.000
27.64000 2947.000
27.68000 2957.000
27.72000 2938.000
27.76000 2963.000
27.80000 2910.000
27.84000 2934.000
27.88000 2996.000
27.92000 3168.000
27.96000 3319.000
28.00000 3465.000
28.04000 3840.000
28.08000 4176.000
28.12000 4630.000
28.16000 4919.000
28.20000 5340.000
28.24000 5507.000
28.28000 5506.000
28.32000 5546.000
28.36000 5388.000
28.40000 4921.000
28.44000 4276.000
28.48000 4144.000
28.52000 3659.000
28.56000 3355.000
28.60000 3167.000
28.64000 3001.000
28.68000 2793.000
28.72000 2794.000
28.76000 2703.000
28.80000 2605.000
28.84000 2678.000
28.88000 2556.000
28.92000 2575.000
28.96000 2536.000
29.00000 2422.000
29.04000 2469.000
29.08000 2381.000
29.12000 2439.000
29.16000 2319.000
29.20000 2364.000
29.24000 2415.000
29.28000 2372.000
29.32000 2324.000
29.36000 2352.000
29.40000 2273.000
29.44000 2329.000
29.48000 2361.000
29.52000 2404.000
29.56000 2331.000
29.60000 2378.000
29.64000 2262.000
29.68000 2324.000
29.72000 2318.000
29.76000 2301.000
29.80000 2374.000
29.84000 2258.000
29.88000 2312.000
29.92000 2318.000
29.96000 2255.000
30.00000 2216.000
30.04000 2314.000
30.08000 2195.000
30.12000 2261.000
30.16000 2211.000
30.20000 2168.000
30.24000 2170.000
30.28000 2268.000
30.32000 2219.000
30.36000 2213.000
30.40000 2182.000
30.44000 2227.000
30.48000 2264.000
30.52000 2203.000
30.56000 2218.000
30.60000 2221.000
30.64000 2231.000
30.68000 2202.000
30.72000 2308.000
30.76000 2161.000
30.80000 2129.000
30.84000 2237.000
30.88000 2267.000
30.92000 2324.000
30.96000 2331.000
31.00000 2324.000
31.04000 2331.000
31.08000 2314.000
31.12000 2342.000
31.16000 2387.000
31.20000 2420.000
31.24000 2414.000
31.28000 2447.000
31.32000 2653.000
31.36000 2688.000
31.40000 2828.000
31.44000 2922.000
31.48000 3355.000
31.52000 3775.000
31.56000 4170.000
31.60000 4689.000
31.64000 5031.000
31.68000 5232.000
31.72000 5238.000
31.76000 5251.000
31.80000 5053.000
31.84000 4605.000
31.88000 4259.000
31.92000 3780.000
31.96000 3404.000
32.00000 3051.000
32.04000 2883.000
32.08000 2662.000
32.12000 2646.000
32.16000 2640.000
32.20000 2422.000
32.24000 2492.000
32.28000 2346.000
32.32000 2350.000
32.36000 2188.000
32.40000 2152.000
32.44000 2110.000
32.48000 2096.000
32.52000 2037.000
32.56000 1858.000
32.60000 1846.000
32.64000 1881.000
32.68000 1902.000
32.72000 1854.000
32.76000 1928.000
32.80000 1929.000
32.84000 1825.000
32.88000 1866.000
32.92000 1853.000
32.96000 1821.000
33.00000 1775.000
33.04000 1799.000
33.08000 1884.000
33.12000 1880.000
33.16000 1885.000
33.20000 1848.000
33.24000 1874.000
33.28000 1790.000
33.32000 1823.000
33.36000 1797.000
33.40000 1817.000
33.44000 1806.000
33.48000 1727.000
33.52000 1791.000
33.56000 1796.000
33.60000 1854.000
33.64000 1784.000
33.68000 1754.000
33.72000 1721.000
33.76000 1790.000
33.80000 1773.000
33.84000 1760.000
33.88000 1740.000
33.92000 1724.000
33.96000 1731.000
34.00000 1762.000
34.04000 1714.000
34.08000 1616.000
34.12000 1635.000
34.16000 1732.000
34.20000 1724.000
34.24000 1647.000
34.28000 1675.000
34.32000 1726.000
34.36000 1706.000
34.40000 1616.000
34.44000 1702.000
34.48000 1729.000
34.52000 1770.000
34.56000 1745.000
34.60000 1790.000
34.64000 1817.000
34.68000 1900.000
34.72000 2061.000
34.76000 2141.000
34.80000 2181.000
34.84000 2254.000
34.88000 2269.000
34.92000 2295.000
34.96000 2233.000
35.00000 2087.000
35.04000 1960.000
35.08000 1936.000
35.12000 1801.000
35.16000 1642.000
35.20000 1690.000
35.24000 1630.000
35.28000 1671.000
35.32000 1508.000
35.36000 1524.000
35.40000 1520.000
35.44000 1546.000
35.48000 1499.000
35.52000 1443.000
35.56000 1540.000
35.60000 1552.000
35.64000 1487.000
35.68000 1497.000
35.72000 1445.000
35.76000 1518.000
35.80000 1433.000
35.84000 1474.000
35.88000 1427.000
35.92000 1469.000
35.96000 1430.000
36.00000 1465.000
36.04000 1405.000
36.08000 1389.000
36.12000 1402.000
36.16000 1417.000
36.20000 1342.000
36.24000 1353.000
36.28000 1404.000
36.32000 1447.000
36.36000 1285.000
36.40000 1407.000
36.44000 1365.000
36.48000 1446.000
36.52000 1388.000
36.56000 1326.000
36.60000 1384.000
36.64000 1334.000
36.68000 1387.000
36.72000 1370.000
36.76000 1370.000
36.80000 1310.000
36.84000 1366.000
36.88000 1415.000
36.92000 1307.000
36.96000 1387.000
37.00000 1277.000
37.04000 1325.000
37.08000 1377.000
37.12000 1321.000
37.16000 1401.000
37.20000 1352.000
37.24000 1308.000
37.28000 1278.000
37.32000 1340.000
37.36000 1340.000
37.40000 1364.000
37.44000 1319.000
37.48000 1393.000
37.52000 1354.000
37.56000 1301.000
37.60000 1351.000
37.64000 1332.000
37.68000 1354.000
37.72000 1334.000
37.76000 1284.000
37.80000 1366.000
37.84000 1362.000
37.88000 1358.000
37.92000 1372.000
37.96000 1309.000
38.00000 1244.000
38.04000 1278.000
38.08000 1261.000
38.12000 1314.000
38.16000 1345.000
38.20000 1243.000
38.24000 1276.000
38.28000 1346.000
38.32000 1325.000
38.36000 1310.000
38.40000 1394.000
38.44000 1480.000
38.48000 1453.000
38.52000 1592.000
38.56000 1570.000
38.60000 1675.000
38.64000 1719.000
38.68000 1674.000
38.72000 1762.000
38.76000 1582.000
38.80000 1512.000
38.84000 1415.000
38.88000 1349.000
38.92000 1351.000
38.96000 1334.000
39.00000 1360.000
39.04000 1289.000
39.08000 1292.000
39.12000 1277.000
39.16000 1311.000
39.20000 1331.000
39.24000 1411.000
39.28000 1420.000
39.32000 1398.000
39.36000 1517.000
39.40000 1541.000
39.44000 1538.000
39.48000 1701.000
39.52000 1651.000
39.56000 1580.000
39.60000 1556.000
39.64000 1481.000
39.68000 1441.000
39.72000 1409.000
39.76000 1391.000
39.80000 1329.000
39.84000 1301.000
39.88000 1377.000
39.92000 1372.000
39.96000 1275.000
40.00000 1381.000
40.04000 1399.000
40.08000 1375.000
40.12000 1421.000
40.16000 1563.000
40.20000 1651.000
40.24000 1968.000
40.28000 2096.000
40.32000 2456.000
40.36000 2767.000
40.40000 3044.000
40.44000 3279.000
40.48000 3546.000
40.52000 3628.000
40.56000 3436.000
40.60000 3277.000
40.64000 3174.000
40.68000 2779.000
40.72000 2471.000
40.76000 2236.000
40.80000 1948.000
40.84000 1731.000
40.88000 1694.000
40.92000 1592.000
40.96000 1420.000
41.00000 1404.000
41.04000 1386.000
41.08000 1415.000
41.12000 1355.000
41.16000 1426.000
41.20000 1375.000
41.24000 1325.000
41.28000 1317.000
41.32000 1323.000
41.36000 1277.000
41.40000 1376.000
41.44000 1284.000
41.48000 1352.000
41.52000 1374.000
41.56000 1376.000
41.60000 1420.000
41.64000 1352.000
41.68000 1361.000
41.72000 1344.000
41.76000 1304.000
41.80000 1266.000
41.84000 1307.000
41.88000 1301.000
41.92000 1247.000
41.96000 1244.000
42.00000 1346.000
42.04000 1336.000
42.08000 1307.000
42.12000 1334.000
42.16000 1341.000
42.20000 1344.000
42.24000 1306.000
42.28000 1260.000
42.32000 1297.000
42.36000 1271.000
42.40000 1254.000
42.44000 1275.000
42.48000 1290.000
42.52000 1313.000
42.56000 1332.000
42.60000 1413.000
42.64000 1331.000
42.68000 1496.000
42.72000 1556.000
42.76000 1539.000
42.80000 1734.000
42.84000 1821.000
42.88000 2003.000
42.92000 2211.000
42.96000 2358.000
43.00000 2564.000
43.04000 2568.000
43.08000 2561.000
43.12000 2570.000
43.16000 2378.000
43.20000 2309.000
43.24000 2100.000
43.28000 1886.000
43.32000 1836.000
43.36000 1622.000
43.40000 1545.000
43.44000 1448.000
43.48000 1423.000
43.52000 1371.000
43.56000 1341.000
43.60000 1319.000
43.64000 1251.000
43.68000 1235.000
43.72000 1234.000
43.76000 1185.000
43.80000 1194.000
43.84000 1204.000
43.88000 1249.000
43.92000 1213.000
43.96000 1183.000
44.00000 1176.000
44.04000 1203.000
44.08000 1179.000
44.12000 1169.000
44.16000 1122.000
44.20000 1236.000
44.24000 1171.000
44.28000 1237.000
44.32000 1132.000
44.36000 1091.000
44.40000 1181.000
44.44000 1127.000
44.48000 1211.000
44.52000 1170.000
44.56000 1196.000
44.60000 1142.000
44.64000 1158.000
44.68000 1151.000
44.72000 1127.000
44.76000 1148.000
44.80000 1161.000
44.84000 1039.000
44.88000 1190.000
44.92000 1101.000
44.96000 1171.000
45.00000 1124.000
45.04000 1151.000
45.08000 1166.000
45.12000 1124.000
45.16000 1121.000
45.20000 1209.000
45.24000 1137.000
45.28000 1162.000
45.32000 1179.000
45.36000 1183.000
45.40000 1210.000
45.44000 1177.000
45.48000 1290.000
45.52000 1221.000
45.56000 1161.000
45.60000 1160.000
45.64000 1180.000
45.68000 1181.000
45.72000 1207.000
45.76000 1108.000
45.80000 1155.000
45.84000 1137.000
45.88000 1064.000
45.92000 1120.000
45.96000 1137.000
46.00000 1126.000
46.04000 1162.000
46.08000 1144.000
46.12000 1089.000
46.16000 1117.000
46.20000 1123.000
46.24000 1094.000
46.28000 1176.000
46.32000 1073.000
46.36000 1026.000
46.40000 1138.000
46.44000 1117.000
46.48000 1106.000
46.52000 1021.000
46.56000 1090.000
46.60000 1094.000
46.64000 1065.000
46.68000 1065.000
46.72000 1081.000
46.76000 1098.000
46.80000 1063.000
46.84000 1051.000
46.88000 1077.000
46.92000 1050.000
46.96000 1088.000
47.00000 1112.000
47.04000 1093.000
47.08000 1119.000
47.12000 1075.000
47.16000 1091.000
47.20000 1116.000
47.24000 1091.000
47.28000 1085.000
47.32000 1029.000
47.36000 1027.000
47.40000 1084.000
47.44000 1031.000
47.48000 1057.000
47.52000 1051.000
47.56000 1038.000
47.60000 1083.000
47.64000 1093.000
47.68000 1122.000
47.72000 1036.000
47.76000 1074.000
47.80000 1135.000
47.84000 1102.000
47.88000 1102.000
47.92000 1068.000
47.96000 1096.000
48.00000 1107.000
48.04000 1096.000
48.08000 1052.000
48.12000 1039.000
48.16000 1029.000
48.20000 1053.000
48.24000 1023.000
48.28000 1034.000
48.32000 1020.000
48.36000 997.000
48.40000 1045.000
48.44000 1031.000
48.48000 1097.000
48.52000 945.000
48.56000 1065.000
48.60000 1026.000
48.64000 979.000
48.68000 997.000
48.72000 1066.000
48.76000 1014.000
48.80000 989.000
48.84000 999.000
48.88000 1025.000
48.92000 1066.000
48.96000 968.000
49.00000 981.000
49.04000 1006.000
49.08000 1088.000
49.12000 988.000
49.16000 1086.000
49.20000 1065.000
49.24000 1115.000
49.28000 1035.000
49.32000 1079.000
49.36000 1083.000
49.40000 1095.000
49.44000 1061.000
49.48000 1067.000
49.52000 998.000
49.56000 1061.000
49.60000 1045.000
49.64000 1049.000
49.68000 1043.000
49.72000 1006.000
49.76000 1133.000
49.80000 1116.000
49.84000 1125.000
49.88000 1131.000
49.92000 1211.000
49.96000 1256.000
50.00000 1336.000
50.04000 1360.000
50.08000 1392.000
50.12000 1417.000
50.16000 1443.000
50.20000 1469.000
50.24000 1405.000
50.28000 1338.000
50.32000 1248.000
50.36000 1282.000
50.40000 1260.000
50.44000 1231.000
50.48000 1185.000
50.52000 1180.000
50.56000 1085.000
50.60000 1069.000
50.64000 1044.000
50.68000 1114.000
50.72000 1034.000
50.76000 1020.000
50.80000 1030.000
50.84000 1056.000
50.88000 976.000
50.92000 1041.000
50.96000 1032.000
51.00000 1033.000
51.04000 1056.000
51.08000 1077.000
51.12000 946.000
51.16000 989.000
51.20000 1020.000
51.24000 1011.000
51.28000 970.000
51.32000 1061.000
51.36000 1009.000
51.40000 1039.000
51.44000 1037.000
51.48000 1038.000
51.52000 976.000
51.56000 1012.000
51.60000 974.000
51.64000 984.000
51.68000 1013.000
51.72000 1025.000
51.76000 1000.000
51.80000 1013.000
51.84000 1064.000
51.88000 1031.000
51.92000 1053.000
51.96000 1087.000
52.00000 1084.000
52.04000 1052.000
52.08000 1126.000
52.12000 1225.000
52.16000 1233.000
52.20000 1290.000
52.24000 1344.000
52.28000 1394.000
52.32000 1423.000
52.36000 1522.000
52.40000 1537.000
52.44000 1439.000
52.48000 1404.000
52.52000 1280.000
52.56000 1266.000
52.60000 1249.000
52.64000 1205.000
52.68000 1125.000
52.72000 1026.000
52.76000 1077.000
52.80000 1066.000
52.84000 1025.000
52.88000 937.000
52.92000 971.000
52.96000 998.000
53.00000 1026.000
53.04000 1019.000
53.08000 999.000
53.12000 977.000
53.16000 1011.000
53.20000 988.000
53.24000 974.000
53.28000 948.000
53.32000 969.000
53.36000 960.000
53.40000 973.000
53.44000 1033.000
53.48000 1000.000
53.52000 1002.000
53.56000 999.000
53.60000 998.000
53.64000 905.000
53.68000 952.000
53.72000 1003.000
53.76000 957.000
53.80000 969.000
53.84000 979.000
53.88000 942.000
53.92000 944.000
53.96000 1015.000
54.00000 980.000
54.04000 930.000
54.08000 1014.000
54.12000 971.000
54.16000 1005.000
54.20000 1020.000
54.24000 1036.000
54.28000 983.000
54.32000 983.000
54.36000 1030.000
54.40000 1034.000
54.44000 1054.000
54.48000 1041.000
54.52000 1042.000
54.56000 1098.000
54.60000 1052.000
54.64000 1070.000
54.68000 1080.000
54.72000 1052.000
54.76000 1052.000
54.80000 1069.000
54.84000 1057.000
54.88000 1016.000
54.92000 1016.000
54.96000 1043.000
55.00000 1081.000
55.04000 1015.000
55.08000 942.000
55.12000 912.000
55.16000 978.000
55.20000 912.000
55.24000 1073.000
55.28000 965.000
55.32000 939.000
55.36000 954.000
55.40000 867.000
55.44000 960.000
55.48000 928.000
55.52000 942.000
55.56000 1010.000
55.60000 998.000
55.64000 913.000
55.68000 990.000
55.72000 955.000
55.76000 980.000
55.80000 962.000
55.84000 1009.000
55.88000 1023.000
55.92000 919.000
55.96000 1007.000
56.00000 987.000
56.04000 969.000
56.08000 999.000
56.12000 956.000
56.16000 940.000
56.20000 1003.000
56.24000 1007.000
56.28000 953.000
56.32000 1022.000
56.36000 916.000
56.40000 971.000
56.44000 994.000
56.48000 1019.000
56.52000 1037.000
56.56000 1027.000
56.60000 974.000
56.64000 1008.000
56.68000 971.000
56.72000 1020.000
56.76000 955.000
56.80000 997.000
56.84000 947.000
56.88000 998.000
56.92000 1045.000
56.96000 959.000
57.00000 958.000
57.04000 979.000
57.08000 919.000
57.12000 992.000
57.16000 938.000
57.20000 928.000
57.24000 1024.000
57.28000 968.000
57.32000 954.000
57.36000 930.000
57.40000 943.000
57.44000 1002.000
57.48000 986.000
57.52000 954.000
57.56000 988.000
57.60000 938.000
57.64000 964.000
57.68000 952.000
57.72000 973.000
57.76000 967.000
57.80000 978.000
57.84000 976.000
57.88000 982.000
57.92000 980.000
57.96000 954.000
58.00000 982.000
58.04000 988.000
58.08000 990.000
58.12000 996.000
58.16000 1010.000
58.20000 1023.000
58.24000 999.000
58.28000 957.000
58.32000 971.000
58.36000 1051.000
58.40000 1063.000
58.44000 1066.000
58.48000 1045.000
58.52000 1052.000
58.56000 1028.000
58.60000 1092.000
58.64000 1097.000
58.68000 989.000
58.72000 1025.000
58.76000 1008.000
58.80000 1022.000
58.84000 1007.000
58.88000 925.000
58.92000 1051.000
58.96000 1002.000
59.00000 1059.000
59.04000 1002.000
59.08000 1035.000
59.12000 952.000
59.16000 1031.000
59.20000 918.000
59.24000 957.000
59.28000 1058.000
59.32000 932.000
59.36000 999.000
59.40000 1024.000
59.44000 980.000
59.48000 958.000
59.52000 966.000
59.56000 1001.000
59.60000 1002.000
59.64000 1033.000
59.68000 994.000
59.72000 928.000
59.76000 987.000
59.80000 999.000
59.84000 990.000
59.88000 969.000
59.92000 1013.000
59.96000 958.000
60.00000 951.000
60.04000 962.000
60.08000 1037.000
60.12000 979.000
60.16000 974.000
60.20000 947.000
60.24000 1054.000
60.28000 1082.000
60.32000 1059.000
60.36000 1110.000
60.40000 1142.000
60.44000 1197.000
60.48000 1211.000
60.52000 1274.000
60.56000 1279.000
60.60000 1255.000
60.64000 1300.000
60.68000 1373.000
60.72000 1279.000
60.76000 1220.000
60.80000 1114.000
60.84000 1119.000
60.88000 1126.000
60.92000 1093.000
60.96000 1045.000
61.00000 1088.000
61.04000 1032.000
61.08000 989.000
61.12000 980.000
61.16000 1090.000
61.20000 1037.000
61.24000 976.000
61.28000 1017.000
61.32000 998.000
61.36000 989.000
61.40000 1014.000
61.44000 1000.000
61.48000 939.000
61.52000 1009.000
61.56000 994.000
61.60000 1004.000
61.64000 991.000
61.68000 937.000
61.72000 975.000
61.76000 981.000
61.80000 957.000
61.84000 1022.000
61.88000 984.000
61.92000 922.000
61.96000 989.000
62.00000 1017.000
62.04000 965.000
62.08000 981.000
62.12000 992.000
62.16000 975.000
62.20000 1019.000
62.24000 986.000
62.28000 1002.000
62.32000 983.000
62.36000 982.000
62.40000 983.000
62.44000 1017.000
62.48000 1026.000
62.52000 976.000
62.56000 1049.000
62.60000 1069.000
62.64000 1017.000
62.68000 1029.000
62.72000 1002.000
62.76000 1025.000
62.80000 1046.000
62.84000 982.000
62.88000 1017.000
62.92000 954.000
62.96000 925.000
63.00000 961.000
63.04000 964.000
63.08000 955.000
63.12000 956.000
63.16000 1012.000
63.20000 952.000
63.24000 930.000
63.28000 1014.000
63.32000 963.000
63.36000 1006.000
63.40000 978.000
63.44000 991.000
63.48000 1022.000
63.52000 921.000
63.56000 918.000
63.60000 923.000
63.64000 951.000
63.68000 985.000
63.72000 1011.000
63.76000 956.000
63.80000 970.000
63.84000 882.000
63.88000 1001.000
63.92000 991.000
63.96000 938.000
64.00000 926.000
64.04000 913.000
64.08000 936.000
64.12000 948.000
64.16000 932.000
64.20000 917.000
64.24000 928.000
64.28000 966.000
64.32000 923.000
64.36000 953.000
64.40000 980.000
64.44000 928.000
64.48000 942.000
64.52000 974.000
64.56000 944.000
64.60000 945.000
64.64000 979.000
64.68000 953.000
64.72000 958.000
64.76000 940.000
64.80000 952.000
64.84000 992.000
64.88000 976.000
64.92000 923.000
64.96000 1020.000
65.00000 873.000
65.04000 1000.000
65.08000 974.000
65.12000 967.000
65.16000 959.000
65.20000 944.000
65.24000 937.000
65.28000 924.000
65.32000 1029.000
65.36000 971.000
65.40000 950.000
65.44000 937.000
65.48000 926.000
65.52000 970.000
65.56000 950.000
65.60000 924.000
65.64000 967.000
65.68000 898.000
65.72000 996.000
65.76000 948.000
65.80000 953.000
65.84000 898.000
65.88000 916.000
65.92000 951.000
65.96000 930.000
66.00000 963.000
66.04000 931.000
66.08000 978.000
66.12000 1006.000
66.16000 977.000
66.20000 1059.000
66.24000 1099.000
66.28000 1054.000
66.32000 1052.000
66.36000 1067.000
66.40000 1080.000
66.44000 1048.000
66.48000 1079.000
66.52000 1059.000
66.56000 1082.000
66.60000 1100.000
66.64000 1055.000
66.68000 952.000
66.72000 982.000
66.76000 980.000
66.80000 901.000
66.84000 969.000
66.88000 898.000
66.92000 914.000
66.96000 947.000
67.00000 952.000
67.04000 914.000
67.08000 924.000
67.12000 928.000
67.16000 934.000
67.20000 959.000
67.24000 938.000
67.28000 907.000
67.32000 929.000
67.36000 927.000
67.40000 967.000
67.44000 957.000
67.48000 912.000
67.52000 979.000
67.56000 961.000
67.60000 972.000
67.64000 988.000
67.68000 930.000
67.72000 979.000
67.76000 931.000
67.80000 938.000
67.84000 933.000
67.88000 903.000
67.92000 944.000
67.96000 920.000
68.00000 1044.000
68.04000 1018.000
68.08000 1079.000
68.12000 1082.000
68.16000 1097.000
68.20000 1105.000
68.24000 1046.000
68.28000 1040.000
68.32000 1057.000
68.36000 1002.000
68.40000 1061.000
68.44000 1028.000
68.48000 945.000
68.52000 1007.000
68.56000 1033.000
68.60000 957.000
68.64000 901.000
68.68000 927.000
68.72000 926.000
68.76000 904.000
68.80000 814.000
68.84000 897.000
68.88000 847.000
68.92000 897.000
68.96000 877.000
69.00000 837.000
69.04000 815.000
69.08000 836.000
69.12000 832.000
69.16000 857.000
69.20000 823.000
69.24000 861.000
69.28000 877.000
69.32000 848.000
69.36000 895.000
69.40000 838.000
69.44000 867.000
69.48000 879.000
69.52000 809.000
69.56000 861.000
69.60000 855.000
69.64000 836.000
69.68000 812.000
69.72000 772.000
69.76000 792.000
69.80000 846.000
69.84000 871.000
69.88000 796.000
69.92000 810.000
