5.00000 813.000
5.02000 788.000
5.04000 812.000
5.06000 820.000
5.08000 797.000
5.10000 813.000
5.12000 793.000
5.14000 800.000
5.16000 798.000
5.18000 816.000
5.20000 775.000
5.22000 799.000
5.24000 776.000
5.26000 794.000
5.28000 782.000
5.30000 822.000
5.32000 794.000
5.34000 815.000
5.36000 767.000
5.38000 751.000
5.40000 806.000
5.42000 744.000
5.44000 758.000
5.46000 738.000
5.48000 748.000
5.50000 743.000
5.52000 743.000
5.54000 726.000
5.56000 784.000
5.58000 723.000
5.60000 754.000
5.62000 750.000
5.64000 763.000
5.66000 705.000
5.68000 761.000
5.70000 657.000
5.72000 660.000
5.74000 712.000
5.76000 689.000
5.78000 664.000
5.80000 687.000
5.82000 641.000
5.84000 742.000
5.86000 710.000
5.88000 704.000
5.90000 708.000
5.92000 663.000
5.94000 654.000
5.96000 682.000
5.98000 673.000
6.00000 655.000
6.02000 649.000
6.04000 661.000
6.06000 710.000
6.08000 689.000
6.10000 661.000
6.12000 670.000
6.14000 641.000
6.16000 633.000
6.18000 592.000
6.20000 611.000
6.22000 627.000
6.24000 639.000
6.26000 655.000
6.28000 632.000
6.30000 676.000
6.32000 614.000
6.34000 604.000
6.36000 637.000
6.38000 641.000
6.40000 608.000
6.42000 623.000
6.44000 638.000
6.46000 597.000
6.48000 630.000
6.50000 592.000
6.52000 632.000
6.54000 616.000
6.56000 577.000
6.58000 638.000
6.60000 674.000
6.62000 608.000
6.64000 617.000
6.66000 571.000
6.68000 621.000
6.70000 602.000
6.72000 535.000
6.74000 603.000
6.76000 568.000
6.78000 636.000
6.80000 548.000
6.82000 629.000
6.84000 618.000
6.86000 654.000
6.88000 593.000
6.90000 578.000
6.92000 604.000
6.94000 633.000
6.96000 572.000
6.98000 615.000
7.00000 566.000
7.02000 529.000
7.04000 577.000
7.06000 580.000
7.08000 601.000
7.10000 586.000
7.12000 567.000
7.14000 568.000
7.16000 579.000
7.18000 548.000
7.20000 534.000
7.22000 573.000
7.24000 576.000
7.26000 558.000
7.28000 534.000
7.30000 561.000
7.32000 553.000
7.34000 501.000
7.36000 583.000
7.38000 523.000
7.40000 528.000
7.42000 554.000
7.44000 530.000
7.46000 496.000
7.48000 563.000
7.50000 524.000
7.52000 508.000
7.54000 521.000
7.56000 479.000
7.58000 509.000
7.60000 536.000
7.62000 497.000
7.64000 495.000
7.66000 528.000
7.68000 507.000
7.70000 520.000
7.72000 548.000
7.74000 507.000
7.76000 528.000
7.78000 505.000
7.80000 487.000
7.82000 504.000
7.84000 501.000
7.86000 462.000
7.88000 522.000
7.90000 517.000
7.92000 530.000
7.94000 509.000
7.96000 505.000
7.98000 547.000
8.00000 506.000
8.02000 489.000
8.04000 462.000
8.06000 459.000
8.08000 486.000
8.10000 485.000
8.12000 465.000
8.14000 461.000
8.16000 501.000
8.18000 492.000
8.20000 499.000
8.22000 502.000
8.24000 476.000
8.26000 478.000
8.28000 498.000
8.30000 425.000
8.32000 448.000
8.34000 511.000
8.36000 473.000
8.38000 490.000
8.40000 458.000
8.42000 464.000
8.44000 512.000
8.46000 475.000
8.48000 435.000
8.50000 490.000
8.52000 475.000
8.54000 467.000
8.56000 453.000
8.58000 459.000
8.60000 473.000
8.62000 485.000
8.64000 474.000
8.66000 453.000
8.68000 425.000
8.70000 445.000
8.72000 461.000
8.74000 447.000
8.76000 453.000
8.78000 407.000
8.80000 439.000
8.82000 439.000
8.84000 433.000
8.86000 466.000
8.88000 461.000
8.90000 456.000
8.92000 456.000
8.94000 451.000
8.96000 437.000
8.98000 442.000
9.00000 442.000
9.02000 420.000
9.04000 433.000
9.06000 446.000
9.08000 454.000
9.10000 462.000
9.12000 443.000
9.14000 424.000
9.16000 408.000
9.18000 423.000
9.20000 415.000
9.22000 425.000
9.24000 426.000
9.26000 427.000
9.28000 465.000
9.30000 452.000
9.32000 412.000
9.34000 399.000
9.36000 415.000
9.38000 448.000
9.40000 382.000
9.42000 408.000
9.44000 416.000
9.46000 398.000
9.48000 437.000
9.50000 433.000
9.52000 409.000
9.54000 397.000
9.56000 472.000
9.58000 422.000
9.60000 427.000
9.62000 428.000
9.64000 419.000
9.66000 370.000
9.68000 408.000
9.70000 411.000
9.72000 411.000
9.74000 412.000
9.76000 456.000
9.78000 440.000
9.80000 382.000
9.82000 454.000
9.84000 398.000
9.86000 410.000
9.88000 379.000
9.90000 372.000
9.92000 417.000
9.94000 411.000
9.96000 432.000
9.98000 421.000
10.00000 409.000
10.02000 406.000
10.04000 433.000
10.06000 395.000
10.08000 390.000
10.10000 401.000
10.12000 400.000
10.14000 413.000
10.16000 394.000
10.18000 358.000
10.20000 371.000
10.22000 389.000
10.24000 423.000
10.26000 385.000
10.28000 381.000
10.30000 392.000
10.32000 373.000
10.34000 364.000
10.36000 355.000
10.38000 356.000
10.40000 359.000
10.42000 347.000
10.44000 384.000
10.46000 396.000
10.48000 357.000
10.50000 365.000
10.52000 374.000
10.54000 367.000
10.56000 374.000
10.58000 307.000
10.60000 375.000
10.62000 365.000
10.64000 372.000
10.66000 330.000
10.68000 405.000
10.70000 368.000
10.72000 358.000
10.74000 331.000
10.76000 386.000
10.78000 367.000
10.80000 333.000
10.82000 359.000
10.84000 341.000
10.86000 344.000
10.88000 329.000
10.90000 355.000
10.92000 349.000
10.94000 359.000
10.96000 353.000
10.98000 332.000
11.00000 355.000
11.02000 364.000
11.04000 360.000
11.06000 342.000
11.08000 353.000
11.10000 344.000
11.12000 335.000
11.14000 349.000
11.16000 342.000
11.18000 369.000
11.20000 351.000
11.22000 318.000
11.24000 338.000
11.26000 344.000
11.28000 328.000
11.30000 333.000
11.32000 364.000
11.34000 360.000
11.36000 321.000
11.38000 342.000
11.40000 334.000
11.42000 359.000
11.44000 309.000
11.46000 340.000
11.48000 315.000
11.50000 331.000
11.52000 314.000
11.54000 339.000
11.56000 301.000
11.58000 340.000
11.60000 296.000
11.62000 338.000
11.64000 322.000
11.66000 339.000
11.68000 330.000
11.70000 338.000
11.72000 337.000
11.74000 312.000
11.76000 348.000
11.78000 330.000
11.80000 312.000
11.82000 316.000
11.84000 304.000
11.86000 322.000
11.88000 344.000
11.90000 293.000
11.92000 322.000
11.94000 328.000
11.96000 295.000
11.98000 319.000
12.00000 314.000
12.02000 325.000
12.04000 300.000
12.06000 307.000
12.08000 334.000
12.10000 319.000
12.12000 301.000
12.14000 320.000
12.16000 317.000
12.18000 293.000
12.20000 319.000
12.22000 318.000
12.24000 306.000
12.26000 293.000
12.28000 328.000
12.30000 318.000
12.32000 314.000
12.34000 315.000
12.36000 323.000
12.38000 329.000
12.40000 340.000
12.42000 322.000
12.44000 355.000
12.46000 349.000
12.48000 329.000
12.50000 311.000
12.52000 330.000
12.54000 371.000
12.56000 362.000
12.58000 327.000
12.60000 345.000
12.62000 361.000
12.64000 357.000
12.66000 337.000
12.68000 328.000
12.70000 385.000
12.72000 362.000
12.74000 349.000
12.76000 343.000
12.78000 330.000
12.80000 333.000
12.82000 326.000
12.84000 324.000
12.86000 331.000
12.88000 296.000
12.90000 330.000
12.92000 301.000
12.94000 312.000
12.96000 320.000
12.98000 345.000
13.00000 329.000
13.02000 327.000
13.04000 314.000
13.06000 288.000
13.08000 334.000
13.10000 309.000
13.12000 355.000
13.14000 343.000
13.16000 358.000
13.18000 323.000
13.20000 342.000
13.22000 363.000
13.24000 356.000
13.26000 391.000
13.28000 390.000
13.30000 358.000
13.32000 388.000
13.34000 435.000
13.36000 450.000
13.38000 393.000
13.40000 448.000
13.42000 446.000
13.44000 489.000
13.46000 482.000
13.48000 504.000
13.50000 513.000
13.52000 543.000
13.54000 487.000
13.56000 553.000
13.58000 553.000
13.60000 542.000
13.62000 570.000
13.64000 562.000
13.66000 623.000
13.68000 657.000
13.70000 711.000
13.72000 723.000
13.74000 770.000
13.76000 811.000
13.78000 877.000
13.80000 900.000
13.82000 1002.000
13.84000 1066.000
13.86000 1163.000
13.88000 1216.000
13.90000 1266.000
13.92000 1515.000
13.94000 1666.000
13.96000 1770.000
13.98000 1921.000
14.00000 2077.000
14.02000 2282.000
14.04000 2549.000
14.06000 2758.000
14.08000 3046.000
14.10000 2941.000
14.12000 2877.000
14.14000 2490.000
14.16000 2170.000
14.18000 1684.000
14.20000 1273.000
14.22000 977.000
14.24000 859.000
14.26000 683.000
14.28000 547.000
14.30000 517.000
14.32000 454.000
14.34000 406.000
14.36000 384.000
14.38000 307.000
14.40000 319.000
14.42000 307.000
14.44000 280.000
14.46000 304.000
14.48000 287.000
14.50000 282.000
14.52000 285.000
14.54000 277.000
14.56000 281.000
14.58000 272.000
14.60000 254.000
14.62000 285.000
14.64000 285.000
14.66000 269.000
14.68000 254.000
14.70000 288.000
14.72000 286.000
14.74000 297.000
14.76000 279.000
14.78000 248.000
14.80000 266.000
14.82000 251.000
14.84000 238.000
14.86000 249.000
14.88000 252.000
14.90000 246.000
14.92000 240.000
14.94000 239.000
14.96000 284.000
14.98000 245.000
15.00000 230.000
15.02000 269.000
15.04000 250.000
15.06000 291.000
15.08000 273.000
15.10000 253.000
15.12000 234.000
15.14000 240.000
15.16000 282.000
15.18000 239.000
15.20000 231.000
15.22000 207.000
15.24000 250.000
15.26000 260.000
15.28000 278.000
15.30000 269.000
15.32000 262.000
15.34000 250.000
15.36000 247.000
15.38000 259.000
15.40000 244.000
15.42000 258.000
15.44000 228.000
15.46000 248.000
15.48000 247.000
15.50000 259.000
15.52000 269.000
15.54000 238.000
15.56000 259.000
15.58000 258.000
15.60000 239.000
15.62000 245.000
15.64000 263.000
15.66000 250.000
15.68000 267.000
15.70000 250.000
15.72000 224.000
15.74000 237.000
15.76000 250.000
15.78000 240.000
15.80000 236.000
15.82000 261.000
15.84000 240.000
15.86000 229.000
15.88000 263.000
15.90000 202.000
15.92000 221.000
15.94000 251.000
15.96000 235.000
15.98000 219.000
16.00000 211.000
16.02000 219.000
16.04000 215.000
16.06000 209.000
16.08000 239.000
16.10000 220.000
16.12000 259.000
16.14000 243.000
16.16000 238.000
16.18000 221.000
16.20000 243.000
16.22000 199.000
16.24000 240.000
16.26000 265.000
16.28000 253.000
16.30000 241.000
16.32000 239.000
16.34000 234.000
16.36000 217.000
16.38000 233.000
16.40000 223.000
16.42000 227.000
16.44000 238.000
16.46000 245.000
16.48000 238.000
16.50000 223.000
16.52000 216.000
16.54000 231.000
16.56000 198.000
16.58000 205.000
16.60000 211.000
16.62000 190.000
16.64000 223.000
16.66000 231.000
16.68000 220.000
16.70000 218.000
16.72000 210.000
16.74000 230.000
16.76000 222.000
16.78000 214.000
16.80000 208.000
16.82000 215.000
16.84000 223.000
16.86000 222.000
16.88000 233.000
16.90000 205.000
16.92000 212.000
16.94000 236.000
16.96000 230.000
16.98000 209.000
17.00000 195.000
17.02000 237.000
17.04000 226.000
17.06000 240.000
17.08000 223.000
17.10000 231.000
17.12000 227.000
17.14000 234.000
17.16000 214.000
17.18000 220.000
17.20000 226.000
17.22000 226.000
17.24000 214.000
17.26000 262.000
17.28000 254.000
17.30000 228.000
17.32000 284.000
17.34000 259.000
17.36000 242.000
17.38000 264.000
17.40000 279.000
17.42000 269.000
17.44000 234.000
17.46000 268.000
17.48000 232.000
17.50000 241.000
17.52000 243.000
17.54000 226.000
17.56000 216.000
17.58000 224.000
17.60000 250.000
17.62000 228.000
17.64000 216.000
17.66000 220.000
17.68000 259.000
17.70000 209.000
17.72000 223.000
17.74000 232.000
17.76000 231.000
17.78000 199.000
17.80000 218.000
17.82000 226.000
17.84000 217.000
17.86000 207.000
17.88000 204.000
17.90000 207.000
17.92000 228.000
17.94000 205.000
17.96000 218.000
17.98000 216.000
18.00000 233.000
18.02000 230.000
18.04000 246.000
18.06000 239.000
18.08000 210.000
18.10000 236.000
18.12000 236.000
18.14000 206.000
18.16000 226.000
18.18000 234.000
18.20000 211.000
18.22000 231.000
18.24000 206.000
18.26000 219.000
18.28000 208.000
18.30000 232.000
18.32000 207.000
18.34000 211.000
18.36000 192.000
18.38000 229.000
18.40000 204.000
18.42000 253.000
18.44000 243.000
18.46000 212.000
18.48000 236.000
18.50000 230.000
18.52000 214.000
18.54000 229.000
18.56000 212.000
18.58000 224.000
18.60000 233.000
18.62000 201.000
18.64000 212.000
18.66000 215.000
18.68000 218.000
18.70000 202.000
18.72000 235.000
18.74000 206.000
18.76000 224.000
18.78000 209.000
18.80000 250.000
18.82000 200.000
18.84000 196.000
18.86000 222.000
18.88000 211.000
18.90000 235.000
18.92000 216.000
18.94000 235.000
18.96000 193.000
18.98000 264.000
19.00000 229.000
19.02000 214.000
19.04000 243.000
19.06000 219.000
19.08000 234.000
19.10000 249.000
19.12000 229.000
19.14000 245.000
19.16000 217.000
19.18000 213.000
19.20000 197.000
19.22000 214.000
19.24000 239.000
19.26000 237.000
19.28000 226.000
19.30000 194.000
19.32000 240.000
19.34000 214.000
19.36000 250.000
19.38000 195.000
19.40000 228.000
19.42000 223.000
19.44000 226.000
19.46000 218.000
19.48000 261.000
19.50000 231.000
19.52000 261.000
19.54000 254.000
19.56000 263.000
19.58000 275.000
19.60000 282.000
19.62000 284.000
19.64000 297.000
19.66000 312.000
19.68000 330.000
19.70000 377.000
19.72000 399.000
19.74000 419.000
19.76000 424.000
19.78000 458.000
19.80000 493.000
19.82000 543.000
19.84000 622.000
19.86000 674.000
19.88000 771.000
19.90000 866.000
19.92000 947.000
19.94000 1121.000
19.96000 1121.000
19.98000 1193.000
20.00000 1182.000
20.02000 1084.000
20.04000 968.000
20.06000 804.000
20.08000 605.000
20.10000 561.000
20.12000 422.000
20.14000 425.000
20.16000 336.000
20.18000 299.000
20.20000 326.000
20.22000 266.000
20.24000 218.000
20.26000 248.000
20.28000 240.000
20.30000 252.000
20.32000 216.000
20.34000 215.000
20.36000 200.000
20.38000 207.000
20.40000 234.000
20.42000 220.000
20.44000 230.000
20.46000 236.000
20.48000 213.000
20.50000 236.000
20.52000 237.000
20.54000 239.000
20.56000 225.000
20.58000 187.000
20.60000 213.000
20.62000 231.000
20.64000 209.000
20.66000 193.000
20.68000 209.000
20.70000 240.000
20.72000 196.000
20.74000 225.000
20.76000 203.000
20.78000 231.000
20.80000 216.000
20.82000 206.000
20.84000 211.000
20.86000 237.000
20.88000 226.000
20.90000 190.000
20.92000 238.000
20.94000 218.000
20.96000 221.000
20.98000 248.000
21.00000 225.000
21.02000 216.000
21.04000 245.000
21.06000 211.000
21.08000 252.000
21.10000 230.000
21.12000 235.000
21.14000 254.000
21.16000 217.000
21.18000 249.000
21.20000 267.000
21.22000 270.000
21.24000 265.000
21.26000 261.000
21.28000 252.000
21.30000 282.000
21.32000 237.000
21.34000 246.000
21.36000 234.000
21.38000 182.000
21.40000 238.000
21.42000 232.000
21.44000 204.000
21.46000 232.000
21.48000 224.000
21.50000 203.000
21.52000 212.000
21.54000 222.000
21.56000 227.000
21.58000 234.000
21.60000 197.000
21.62000 209.000
21.64000 239.000
21.66000 205.000
21.68000 221.000
21.70000 258.000
21.72000 219.000
21.74000 200.000
21.76000 209.000
21.78000 226.000
21.80000 221.000
21.82000 202.000
21.84000 216.000
21.86000 228.000
21.88000 230.000
21.90000 240.000
21.92000 237.000
21.94000 222.000
21.96000 235.000
21.98000 216.000
22.00000 238.000
22.02000 220.000
22.04000 238.000
22.06000 239.000
22.08000 225.000
22.10000 235.000
22.12000 242.000
22.14000 235.000
22.16000 222.000
22.18000 240.000
22.20000 257.000
22.22000 263.000
22.24000 241.000
22.26000 255.000
22.28000 260.000
22.30000 234.000
22.32000 256.000
22.34000 252.000
22.36000 277.000
22.38000 220.000
22.40000 255.000
22.42000 212.000
22.44000 215.000
22.46000 241.000
22.48000 212.000
22.50000 230.000
22.52000 238.000
22.54000 220.000
22.56000 222.000
22.58000 227.000
22.60000 241.000
22.62000 238.000
22.64000 193.000
22.66000 194.000
22.68000 217.000
22.70000 229.000
22.72000 215.000
22.74000 235.000
22.76000 213.000
22.78000 231.000
22.80000 221.000
22.82000 225.000
22.84000 228.000
22.86000 240.000
22.88000 241.000
22.90000 240.000
22.92000 220.000
22.94000 219.000
22.96000 242.000
22.98000 228.000
23.00000 220.000
23.02000 249.000
23.04000 253.000
23.06000 244.000
23.08000 233.000
23.10000 232.000
23.12000 251.000
23.14000 232.000
23.16000 236.000
23.18000 226.000
23.20000 280.000
23.22000 237.000
23.24000 227.000
23.26000 237.000
23.28000 210.000
23.30000 262.000
23.32000 228.000
23.34000 244.000
23.36000 252.000
23.38000 221.000
23.40000 234.000
23.42000 275.000
23.44000 176.000
23.46000 272.000
23.48000 263.000
23.50000 226.000
23.52000 264.000
23.54000 253.000
23.56000 229.000
23.58000 236.000
23.60000 236.000
23.62000 238.000
23.64000 256.000
23.66000 237.000
23.68000 251.000
23.70000 245.000
23.72000 229.000
23.74000 243.000
23.76000 228.000
23.78000 215.000
23.80000 247.000
23.82000 233.000
23.84000 239.000
23.86000 239.000
23.88000 236.000
23.90000 209.000
23.92000 217.000
23.94000 248.000
23.96000 254.000
23.98000 246.000
24.00000 224.000
24.02000 230.000
24.04000 218.000
24.06000 273.000
24.08000 284.000
24.10000 246.000
24.12000 244.000
24.14000 254.000
24.16000 269.000
24.18000 283.000
24.20000 328.000
24.22000 298.000
24.24000 325.000
24.26000 355.000
24.28000 361.000
24.30000 395.000
24.32000 411.000
24.34000 436.000
24.36000 506.000
24.38000 526.000
24.40000 617.000
24.42000 729.000
24.44000 777.000
24.46000 868.000
24.48000 944.000
24.50000 1056.000
24.52000 1145.000
24.54000 1121.000
24.56000 1092.000
24.58000 1014.000
24.60000 949.000
24.62000 750.000
24.64000 588.000
24.66000 565.000
24.68000 460.000
24.70000 412.000
24.72000 365.000
24.74000 366.000
24.76000 313.000
24.78000 298.000
24.80000 265.000
24.82000 263.000
24.84000 245.000
24.86000 265.000
24.88000 258.000
24.90000 266.000
24.92000 271.000
24.94000 238.000
24.96000 245.000
24.98000 247.000
25.00000 256.000
25.02000 261.000
25.04000 234.000
25.06000 232.000
25.08000 240.000
25.10000 216.000
25.12000 240.000
25.14000 227.000
25.16000 283.000
25.18000 241.000
25.20000 238.000
25.22000 250.000
25.24000 211.000
25.26000 254.000
25.28000 223.000
25.30000 211.000
25.32000 236.000
25.34000 239.000
25.36000 244.000
25.38000 255.000
25.40000 236.000
25.42000 250.000
25.44000 252.000
25.46000 262.000
25.48000 253.000
25.50000 255.000
25.52000 277.000
25.54000 288.000
25.56000 250.000
25.58000 277.000
25.60000 288.000
25.62000 272.000
25.64000 275.000
25.66000 285.000
25.68000 327.000
25.70000 299.000
25.72000 336.000
25.74000 323.000
25.76000 342.000
25.78000 346.000
25.80000 363.000
25.82000 331.000
25.84000 358.000
25.86000 331.000
25.88000 364.000
25.90000 305.000
25.92000 280.000
25.94000 253.000
25.96000 277.000
25.98000 270.000
26.00000 277.000
26.02000 272.000
26.04000 254.000
26.06000 266.000
26.08000 256.000
26.10000 275.000
26.12000 259.000
26.14000 260.000
26.16000 263.000
26.18000 246.000
26.20000 247.000
26.22000 271.000
26.24000 231.000
26.26000 256.000
26.28000 245.000
26.30000 237.000
26.32000 238.000
26.34000 239.000
26.36000 245.000
26.38000 282.000
26.40000 259.000
26.42000 233.000
26.44000 280.000
26.46000 257.000
26.48000 249.000
26.50000 261.000
26.52000 279.000
26.54000 238.000
26.56000 222.000
26.58000 260.000
26.60000 273.000
26.62000 252.000
26.64000 258.000
26.66000 289.000
26.68000 295.000
26.70000 282.000
26.72000 291.000
26.74000 307.000
26.76000 298.000
26.78000 312.000
26.80000 305.000
26.82000 335.000
26.84000 323.000
26.86000 321.000
26.88000 319.000
26.90000 345.000
26.92000 336.000
26.94000 321.000
26.96000 377.000
26.98000 373.000
27.00000 368.000
27.02000 381.000
27.04000 396.000
27.06000 418.000
27.08000 428.000
27.10000 406.000
27.12000 402.000
27.14000 383.000
27.16000 431.000
27.18000 416.000
27.20000 403.000
27.22000 397.000
27.24000 361.000
27.26000 366.000
27.28000 374.000
27.30000 327.000
27.32000 340.000
27.34000 267.000
27.36000 316.000
27.38000 376.000
27.40000 344.000
27.42000 318.000
27.44000 352.000
27.46000 395.000
27.48000 402.000
27.50000 383.000
27.52000 392.000
27.54000 436.000
27.56000 435.000
27.58000 465.000
27.60000 534.000
27.62000 485.000
27.64000 530.000
27.66000 456.000
27.68000 412.000
27.70000 444.000
27.72000 425.000
27.74000 354.000
27.76000 364.000
27.78000 357.000
27.80000 312.000
27.82000 296.000
27.84000 309.000
27.86000 299.000
27.88000 294.000
27.90000 337.000
27.92000 301.000
27.94000 315.000
27.96000 339.000
27.98000 349.000
28.00000 394.000
28.02000 425.000
28.04000 401.000
28.06000 437.000
28.08000 524.000
28.10000 597.000
28.12000 596.000
28.14000 672.000
28.16000 743.000
28.18000 819.000
28.20000 927.000
28.22000 1070.000
28.24000 1199.000
28.26000 1363.000
28.28000 1557.000
28.30000 1859.000
28.32000 2099.000
28.34000 2388.000
28.36000 2749.000
28.38000 3027.000
28.40000 3104.000
28.42000 2973.000
28.44000 2742.000
28.46000 2491.000
28.48000 2098.000
28.50000 1769.000
28.52000 1434.000
28.54000 1106.000
28.56000 961.000
28.58000 769.000
28.60000 641.000
28.62000 527.000
28.64000 461.000
28.66000 391.000
28.68000 378.000
28.70000 367.000
28.72000 304.000
28.74000 339.000
28.76000 312.000
28.78000 298.000
28.80000 275.000
28.82000 278.000
28.84000 294.000
28.86000 248.000
28.88000 243.000
28.90000 244.000
28.92000 242.000
28.94000 243.000
28.96000 255.000
28.98000 243.000
29.00000 257.000
29.02000 245.000
29.04000 251.000
29.06000 268.000
29.08000 228.000
29.10000 231.000
29.12000 255.000
29.14000 232.000
29.16000 234.000
29.18000 246.000
29.20000 247.000
29.22000 241.000
29.24000 226.000
29.26000 240.000
29.28000 236.000
29.30000 264.000
29.32000 248.000
29.34000 204.000
29.36000 237.000
29.38000 238.000
29.40000 248.000
29.42000 244.000
29.44000 221.000
29.46000 245.000
29.48000 221.000
29.50000 245.000
29.52000 228.000
29.54000 210.000
29.56000 226.000
29.58000 246.000
29.60000 218.000
29.62000 236.000
29.64000 227.000
29.66000 226.000
29.68000 259.000
29.70000 236.000
29.72000 237.000
29.74000 232.000
29.76000 242.000
29.78000 225.000
29.80000 265.000
29.82000 236.000
29.84000 224.000
29.86000 252.000
29.88000 243.000
29.90000 231.000
29.92000 223.000
29.94000 249.000
29.96000 271.000
29.98000 256.000
30.00000 281.000
30.02000 254.000
30.04000 259.000
30.06000 235.000
30.08000 262.000
30.10000 260.000
30.12000 232.000
30.14000 262.000
30.16000 236.000
30.18000 237.000
30.20000 234.000
30.22000 218.000
30.24000 249.000
30.26000 215.000
30.28000 269.000
30.30000 226.000
30.32000 228.000
30.34000 249.000
30.36000 271.000
30.38000 276.000
30.40000 260.000
30.42000 256.000
30.44000 269.000
30.46000 283.000
30.48000 259.000
30.50000 251.000
30.52000 262.000
30.54000 257.000
30.56000 232.000
30.58000 237.000
30.60000 248.000
30.62000 265.000
30.64000 241.000
30.66000 251.000
30.68000 216.000
30.70000 240.000
30.72000 240.000
30.74000 244.000
30.76000 270.000
30.78000 231.000
30.80000 241.000
30.82000 219.000
30.84000 241.000
30.86000 207.000
30.88000 234.000
30.90000 243.000
30.92000 261.000
30.94000 253.000
30.96000 244.000
30.98000 253.000
31.00000 234.000
31.02000 245.000
31.04000 253.000
31.06000 247.000
31.08000 240.000
31.10000 236.000
31.12000 227.000
31.14000 272.000
31.16000 266.000
31.18000 269.000
31.20000 294.000
31.22000 289.000
31.24000 274.000
31.26000 258.000
31.28000 283.000
31.30000 269.000
31.32000 293.000
31.34000 271.000
31.36000 275.000
31.38000 282.000
31.40000 290.000
31.42000 306.000
31.44000 338.000
31.46000 325.000
31.48000 388.000
31.50000 418.000
31.52000 452.000
31.54000 514.000
31.56000 592.000
31.58000 667.000
31.60000 729.000
31.62000 853.000
31.64000 1028.000
31.66000 1209.000
31.68000 1369.000
31.70000 1641.000
31.72000 1931.000
31.74000 2417.000
31.76000 2715.000
31.78000 3069.000
31.80000 3385.000
31.82000 3773.000
31.84000 3734.000
31.86000 3623.000
31.88000 3397.000
31.90000 2968.000
31.92000 2514.000
31.94000 2093.000
31.96000 1625.000
31.98000 1364.000
32.00000 1020.000
32.02000 852.000
32.04000 674.000
32.06000 597.000
32.08000 478.000
32.10000 443.000
32.12000 410.000
32.14000 369.000
32.16000 307.000
32.18000 297.000
32.20000 277.000
32.22000 282.000
32.24000 258.000
32.26000 272.000
32.28000 252.000
32.30000 268.000
32.32000 236.000
32.34000 274.000
32.36000 247.000
32.38000 255.000
32.40000 253.000
32.42000 202.000
32.44000 210.000
32.46000 232.000
32.48000 216.000
32.50000 234.000
32.52000 223.000
32.54000 203.000
32.56000 208.000
32.58000 225.000
32.60000 178.000
32.62000 183.000
32.64000 210.000
32.66000 248.000
32.68000 189.000
32.70000 216.000
32.72000 178.000
32.74000 221.000
32.76000 215.000
32.78000 193.000
32.80000 222.000
32.82000 187.000
32.84000 189.000
32.86000 220.000
32.88000 208.000
32.90000 205.000
32.92000 206.000
32.94000 214.000
32.96000 208.000
32.98000 229.000
33.00000 188.000
33.02000 233.000
33.04000 202.000
33.06000 192.000
33.08000 175.000
33.10000 212.000
33.12000 213.000
33.14000 164.000
33.16000 201.000
33.18000 199.000
33.20000 188.000
33.22000 181.000
33.24000 207.000
33.26000 189.000
33.28000 213.000
33.30000 185.000
33.32000 192.000
33.34000 197.000
33.36000 189.000
33.38000 196.000
33.40000 206.000
33.42000 187.000
33.44000 209.000
33.46000 193.000
33.48000 190.000
33.50000 200.000
33.52000 194.000
33.54000 198.000
33.56000 199.000
33.58000 186.000
33.60000 171.000
33.62000 187.000
33.64000 200.000
33.66000 172.000
33.68000 188.000
33.70000 209.000
33.72000 182.000
33.74000 171.000
33.76000 181.000
33.78000 174.000
33.80000 197.000
33.82000 168.000
33.84000 180.000
33.86000 194.000
33.88000 177.000
33.90000 189.000
33.92000 183.000
33.94000 187.000
33.96000 211.000
33.98000 191.000
34.00000 211.000
34.02000 172.000
34.04000 214.000
34.06000 178.000
34.08000 157.000
34.10000 182.000
34.12000 183.000
34.14000 177.000
34.16000 185.000
34.18000 186.000
34.20000 176.000
34.22000 198.000
34.24000 189.000
34.26000 191.000
34.28000 203.000
34.30000 199.000
34.32000 182.000
34.34000 188.000
34.36000 173.000
34.38000 184.000
34.40000 206.000
34.42000 183.000
34.44000 174.000
34.46000 186.000
34.48000 205.000
34.50000 171.000
34.52000 176.000
34.54000 210.000
34.56000 182.000
34.58000 181.000
34.60000 191.000
34.62000 194.000
34.64000 198.000
34.66000 188.000
34.68000 228.000
34.70000 218.000
34.72000 239.000
34.74000 258.000
34.76000 254.000
34.78000 279.000
34.80000 310.000
34.82000 381.000
34.84000 411.000
34.86000 432.000
34.88000 495.000
34.90000 588.000
34.92000 672.000
34.94000 658.000
34.96000 743.000
34.98000 693.000
35.00000 686.000
35.02000 614.000
35.04000 547.000
35.06000 517.000
35.08000 454.000
35.10000 393.000
35.12000 354.000
35.14000 296.000
35.16000 252.000
35.18000 221.000
35.20000 230.000
35.22000 220.000
35.24000 222.000
35.26000 182.000
35.28000 208.000
35.30000 193.000
35.32000 190.000
35.34000 177.000
35.36000 211.000
35.38000 173.000
35.40000 171.000
35.42000 159.000
35.44000 156.000
35.46000 184.000
35.48000 176.000
35.50000 162.000
35.52000 173.000
35.54000 163.000
35.56000 170.000
35.58000 201.000
35.60000 191.000
35.62000 160.000
35.64000 211.000
35.66000 186.000
35.68000 204.000
35.70000 165.000
35.72000 166.000
35.74000 192.000
35.76000 174.000
35.78000 162.000
35.80000 199.000
35.82000 170.000
35.84000 159.000
35.86000 161.000
35.88000 184.000
35.90000 171.000
35.92000 155.000
35.94000 182.000
35.96000 168.000
35.98000 171.000
36.00000 161.000
36.02000 180.000
36.04000 176.000
36.06000 163.000
36.08000 156.000
36.10000 187.000
36.12000 173.000
36.14000 148.000
36.16000 159.000
36.18000 159.000
36.20000 170.000
36.22000 168.000
36.24000 176.000
36.26000 167.000
36.28000 163.000
36.30000 176.000
36.32000 157.000
36.34000 188.000
36.36000 171.000
36.38000 177.000
36.40000 183.000
36.42000 170.000
36.44000 175.000
36.46000 171.000
36.48000 177.000
36.50000 179.000
36.52000 189.000
36.54000 191.000
36.56000 184.000
36.58000 159.000
36.60000 206.000
36.62000 188.000
36.64000 182.000
36.66000 168.000
36.68000 200.000
36.70000 166.000
36.72000 164.000
36.74000 221.000
36.76000 186.000
36.78000 159.000
36.80000 180.000
36.82000 180.000
36.84000 188.000
36.86000 155.000
36.88000 184.000
36.90000 200.000
36.92000 215.000
36.94000 203.000
36.96000 175.000
36.98000 167.000
37.00000 184.000
37.02000 183.000
37.04000 199.000
37.06000 181.000
37.08000 168.000
37.10000 174.000
37.12000 165.000
37.14000 156.000
37.16000 148.000
37.18000 177.000
37.20000 167.000
37.22000 170.000
37.24000 161.000
37.26000 176.000
37.28000 191.000
37.30000 170.000
37.32000 184.000
37.34000 182.000
37.36000 171.000
37.38000 162.000
37.40000 157.000
37.42000 182.000
37.44000 163.000
37.46000 180.000
37.48000 202.000
37.50000 160.000
37.52000 180.000
37.54000 175.000
37.56000 175.000
37.58000 160.000
37.60000 184.000
37.62000 163.000
37.64000 161.000
37.66000 165.000
37.68000 180.000
37.70000 179.000
37.72000 153.000
37.74000 176.000
37.76000 155.000
37.78000 169.000
37.80000 168.000
37.82000 175.000
37.84000 169.000
37.86000 161.000
37.88000 154.000
37.90000 161.000
37.92000 162.000
37.94000 160.000
37.96000 151.000
37.98000 175.000
38.00000 172.000
38.02000 199.000
38.04000 164.000
38.06000 146.000
38.08000 177.000
38.10000 176.000
38.12000 168.000
38.14000 174.000
38.16000 161.000
38.18000 147.000
38.20000 157.000
38.22000 176.000
38.24000 162.000
38.26000 180.000
38.28000 204.000
38.30000 171.000
38.32000 184.000
38.34000 188.000
38.36000 183.000
38.38000 176.000
38.40000 175.000
38.42000 178.000
38.44000 203.000
38.46000 194.000
38.48000 219.000
38.50000 206.000
38.52000 202.000
38.54000 211.000
38.56000 241.000
38.58000 235.000
38.60000 253.000
38.62000 224.000
38.64000 244.000
38.66000 202.000
38.68000 242.000
38.70000 219.000
38.72000 219.000
38.74000 218.000
38.76000 225.000
38.78000 216.000
38.80000 221.000
38.82000 199.000
38.84000 226.000
38.86000 162.000
38.88000 186.000
38.90000 161.000
38.92000 209.000
38.94000 187.000
38.96000 179.000
38.98000 166.000
39.00000 173.000
39.02000 181.000
39.04000 178.000
39.06000 166.000
39.08000 155.000
39.10000 170.000
39.12000 153.000
39.14000 173.000
39.16000 159.000
39.18000 181.000
39.20000 172.000
39.22000 209.000
39.24000 191.000
39.26000 198.000
39.28000 173.000
39.30000 182.000
39.32000 173.000
39.34000 185.000
39.36000 190.000
39.38000 183.000
39.40000 164.000
39.42000 192.000
39.44000 172.000
39.46000 187.000
39.48000 181.000
39.50000 190.000
39.52000 180.000
39.54000 196.000
39.56000 167.000
39.58000 185.000
39.60000 180.000
39.62000 198.000
39.64000 169.000
39.66000 172.000
39.68000 167.000
39.70000 165.000
39.72000 190.000
39.74000 182.000
39.76000 198.000
39.78000 209.000
39.80000 204.000
39.82000 174.000
39.84000 192.000
39.86000 144.000
39.88000 171.000
39.90000 189.000
39.92000 195.000
39.94000 186.000
39.96000 212.000
39.98000 174.000
40.00000 175.000
40.02000 194.000
40.04000 155.000
40.06000 206.000
40.08000 178.000
40.10000 201.000
40.12000 181.000
40.14000 224.000
40.16000 207.000
40.18000 210.000
40.20000 230.000
40.22000 247.000
40.24000 262.000
40.26000 292.000
40.28000 284.000
40.30000 335.000
40.32000 348.000
40.34000 406.000
40.36000 458.000
40.38000 496.000
40.40000 602.000
40.42000 691.000
40.44000 824.000
40.46000 967.000
40.48000 1178.000
40.50000 1347.000
40.52000 1698.000
40.54000 1930.000
40.56000 2127.000
40.58000 2255.000
40.60000 2159.000
40.62000 2155.000
40.64000 1958.000
40.66000 1834.000
40.68000 1615.000
40.70000 1395.000
40.72000 1227.000
40.74000 992.000
40.76000 753.000
40.78000 614.000
40.80000 537.000
40.82000 435.000
40.84000 381.000
40.86000 335.000
40.88000 289.000
40.90000 267.000
40.92000 243.000
40.94000 227.000
40.96000 218.000
40.98000 186.000
41.00000 214.000
41.02000 182.000
41.04000 189.000
41.06000 192.000
41.08000 235.000
41.10000 184.000
41.12000 200.000
41.14000 215.000
41.16000 207.000
41.18000 203.000
41.20000 193.000
41.22000 226.000
41.24000 203.000
41.26000 209.000
41.28000 218.000
41.30000 202.000
41.32000 204.000
41.34000 208.000
41.36000 198.000
41.38000 189.000
41.40000 201.000
41.42000 189.000
41.44000 198.000
41.46000 208.000
41.48000 172.000
41.50000 162.000
41.52000 204.000
41.54000 175.000
41.56000 197.000
41.58000 185.000
41.60000 195.000
41.62000 180.000
41.64000 174.000
41.66000 157.000
41.68000 173.000
41.70000 174.000
41.72000 196.000
41.74000 173.000
41.76000 199.000
41.78000 177.000
41.80000 178.000
41.82000 173.000
41.84000 198.000
41.86000 205.000
41.88000 174.000
41.90000 153.000
41.92000 195.000
41.94000 204.000
41.96000 195.000
41.98000 195.000
42.00000 214.000
42.02000 210.000
42.04000 198.000
42.06000 201.000
42.08000 179.000
42.10000 220.000
42.12000 218.000
42.14000 203.000
42.16000 192.000
42.18000 192.000
42.20000 219.000
42.22000 178.000
42.24000 192.000
42.26000 160.000
42.28000 182.000
42.30000 176.000
42.32000 183.000
42.34000 174.000
42.36000 159.000
42.38000 178.000
42.40000 167.000
42.42000 178.000
42.44000 173.000
42.46000 179.000
42.48000 142.000
42.50000 187.000
42.52000 182.000
42.54000 152.000
42.56000 188.000
42.58000 152.000
42.60000 152.000
42.62000 173.000
42.64000 186.000
42.66000 183.000
42.68000 179.000
42.70000 191.000
42.72000 188.000
42.74000 182.000
42.76000 210.000
42.78000 207.000
42.80000 202.000
42.82000 198.000
42.84000 222.000
42.86000 246.000
42.88000 256.000
42.90000 262.000
42.92000 340.000
42.94000 320.000
42.96000 406.000
42.98000 490.000
43.00000 499.000
43.02000 642.000
43.04000 718.000
43.06000 886.000
43.08000 1012.000
43.10000 1197.000
43.12000 1438.000
43.14000 1639.000
43.16000 1665.000
43.18000 1672.000
43.20000 1541.000
43.22000 1451.000
43.24000 1309.000
43.26000 1116.000
43.28000 1059.000
43.30000 971.000
43.32000 764.000
43.34000 659.000
43.36000 528.000
43.38000 460.000
43.40000 357.000
43.42000 327.000
43.44000 273.000
43.46000 239.000
43.48000 247.000
43.50000 192.000
43.52000 194.000
43.54000 202.000
43.56000 196.000
43.58000 183.000
43.60000 165.000
43.62000 180.000
43.64000 161.000
43.66000 171.000
43.68000 154.000
43.70000 176.000
43.72000 149.000
43.74000 137.000
43.76000 127.000
43.78000 165.000
43.80000 135.000
43.82000 123.000
43.84000 151.000
43.86000 132.000
43.88000 153.000
43.90000 128.000
43.92000 149.000
43.94000 161.000
43.96000 147.000
43.98000 147.000
44.00000 158.000
44.02000 165.000
44.04000 139.000
44.06000 163.000
44.08000 139.000
44.10000 147.000
44.12000 145.000
44.14000 128.000
44.16000 138.000
44.18000 142.000
44.20000 154.000
44.22000 146.000
44.24000 141.000
44.26000 144.000
44.28000 127.000
44.30000 147.000
44.32000 154.000
44.34000 161.000
44.36000 147.000
44.38000 114.000
44.40000 145.000
44.42000 143.000
44.44000 123.000
44.46000 152.000
44.48000 127.000
44.50000 144.000
44.52000 156.000
44.54000 152.000
44.56000 146.000
44.58000 141.000
44.60000 137.000
44.62000 128.000
44.64000 129.000
44.66000 155.000
44.68000 121.000
44.70000 127.000
44.72000 147.000
44.74000 110.000
44.76000 118.000
44.78000 142.000
44.80000 139.000
44.82000 135.000
44.84000 122.000
44.86000 129.000
44.88000 133.000
44.90000 147.000
44.92000 140.000
44.94000 150.000
44.96000 138.000
44.98000 130.000
45.00000 125.000
45.02000 134.000
45.04000 124.000
45.06000 128.000
45.08000 124.000
45.10000 134.000
45.12000 136.000
45.14000 123.000
45.16000 130.000
45.18000 133.000
45.20000 126.000
45.22000 146.000
45.24000 141.000
45.26000 128.000
45.28000 112.000
45.30000 125.000
45.32000 151.000
45.34000 128.000
45.36000 148.000
45.38000 145.000
45.40000 145.000
45.42000 142.000
45.44000 154.000
45.46000 157.000
45.48000 160.000
45.50000 152.000
45.52000 177.000
45.54000 164.000
45.56000 158.000
45.58000 204.000
45.60000 184.000
45.62000 200.000
45.64000 178.000
45.66000 164.000
45.68000 185.000
45.70000 181.000
45.72000 174.000
45.74000 164.000
45.76000 159.000
45.78000 145.000
45.80000 148.000
45.82000 127.000
45.84000 128.000
45.86000 124.000
45.88000 142.000
45.90000 142.000
45.92000 140.000
45.94000 120.000
45.96000 126.000
45.98000 115.000
46.00000 115.000
46.02000 118.000
46.04000 122.000
46.06000 124.000
46.08000 105.000
46.10000 109.000
46.12000 144.000
46.14000 130.000
46.16000 134.000
46.18000 101.000
46.20000 121.000
46.22000 101.000
46.24000 117.000
46.26000 91.000
46.28000 125.000
46.30000 105.000
46.32000 109.000
46.34000 116.000
46.36000 113.000
46.38000 102.000
46.40000 132.000
46.42000 106.000
46.44000 130.000
46.46000 109.000
46.48000 120.000
46.50000 105.000
46.52000 118.000
46.54000 125.000
46.56000 146.000
46.58000 107.000
46.60000 126.000
46.62000 124.000
46.64000 122.000
46.66000 102.000
46.68000 103.000
46.70000 115.000
46.72000 124.000
46.74000 112.000
46.76000 115.000
46.78000 112.000
46.80000 109.000
46.82000 112.000
46.84000 105.000
46.86000 123.000
46.88000 131.000
46.90000 133.000
46.92000 118.000
46.94000 115.000
46.96000 97.000
46.98000 127.000
47.00000 120.000
47.02000 145.000
47.04000 137.000
47.06000 153.000
47.08000 135.000
47.10000 123.000
47.12000 119.000
47.14000 154.000
47.16000 126.000
47.18000 119.000
47.20000 135.000
47.22000 130.000
47.24000 139.000
47.26000 130.000
47.28000 129.000
47.30000 113.000
47.32000 111.000
47.34000 118.000
47.36000 125.000
47.38000 105.000
47.40000 118.000
47.42000 127.000
47.44000 105.000
47.46000 101.000
47.48000 128.000
47.50000 115.000
47.52000 123.000
47.54000 120.000
47.56000 107.000
47.58000 103.000
47.60000 119.000
47.62000 96.000
47.64000 117.000
47.66000 107.000
47.68000 104.000
47.70000 122.000
47.72000 118.000
47.74000 127.000
47.76000 122.000
47.78000 143.000
47.80000 118.000
47.82000 124.000
47.84000 140.000
47.86000 148.000
47.88000 132.000
47.90000 136.000
47.92000 132.000
47.94000 133.000
47.96000 140.000
47.98000 155.000
48.00000 145.000
48.02000 159.000
48.04000 144.000
48.06000 148.000
48.08000 152.000
48.10000 131.000
48.12000 140.000
48.14000 136.000
48.16000 128.000
48.18000 128.000
48.20000 102.000
48.22000 107.000
48.24000 119.000
48.26000 109.000
48.28000 89.000
48.30000 133.000
48.32000 110.000
48.34000 120.000
48.36000 99.000
48.38000 86.000
48.40000 107.000
48.42000 124.000
48.44000 124.000
48.46000 104.000
48.48000 93.000
48.50000 116.000
48.52000 93.000
48.54000 125.000
48.56000 103.000
48.58000 116.000
48.60000 116.000
48.62000 124.000
48.64000 87.000
48.66000 109.000
48.68000 111.000
48.70000 96.000
48.72000 114.000
48.74000 106.000
48.76000 89.000
48.78000 100.000
48.80000 117.000
48.82000 103.000
48.84000 132.000
48.86000 116.000
48.88000 105.000
48.90000 105.000
48.92000 112.000
48.94000 98.000
48.96000 110.000
48.98000 103.000
49.00000 134.000
49.02000 125.000
49.04000 112.000
49.06000 116.000
49.08000 121.000
49.10000 125.000
49.12000 108.000
49.14000 122.000
49.16000 113.000
49.18000 115.000
49.20000 127.000
49.22000 116.000
49.24000 105.000
49.26000 115.000
49.28000 118.000
49.30000 111.000
49.32000 124.000
49.34000 117.000
49.36000 111.000
49.38000 109.000
49.40000 123.000
49.42000 106.000
49.44000 103.000
49.46000 107.000
49.48000 110.000
49.50000 122.000
49.52000 103.000
49.54000 105.000
49.56000 126.000
49.58000 125.000
49.60000 129.000
49.62000 128.000
49.64000 115.000
49.66000 120.000
49.68000 111.000
49.70000 124.000
49.72000 102.000
49.74000 99.000
49.76000 129.000
49.78000 134.000
49.80000 123.000
49.82000 124.000
49.84000 118.000
49.86000 114.000
49.88000 110.000
49.90000 122.000
49.92000 118.000
49.94000 133.000
49.96000 141.000
49.98000 131.000
50.00000 146.000
50.02000 145.000
50.04000 178.000
50.06000 197.000
50.08000 228.000
50.10000 228.000
50.12000 247.000
50.14000 314.000
50.16000 335.000
50.18000 378.000
50.20000 421.000
50.22000 504.000
50.24000 521.000
50.26000 603.000
50.28000 578.000
50.30000 562.000
50.32000 540.000
50.34000 444.000
50.36000 475.000
50.38000 408.000
50.40000 417.000
50.42000 376.000
50.44000 337.000
50.46000 292.000
50.48000 230.000
50.50000 235.000
50.52000 185.000
50.54000 166.000
50.56000 151.000
50.58000 150.000
50.60000 153.000
50.62000 137.000
50.64000 116.000
50.66000 141.000
50.68000 130.000
50.70000 99.000
50.72000 127.000
50.74000 121.000
50.76000 114.000
50.78000 121.000
50.80000 112.000
50.82000 122.000
50.84000 111.000
50.86000 117.000
50.88000 135.000
50.90000 101.000
50.92000 107.000
50.94000 103.000
50.96000 120.000
50.98000 97.000
51.00000 119.000
51.02000 104.000
51.04000 113.000
51.06000 105.000
51.08000 101.000
51.10000 95.000
51.12000 86.000
51.14000 97.000
51.16000 109.000
51.18000 115.000
51.20000 104.000
51.22000 107.000
51.24000 117.000
51.26000 99.000
51.28000 113.000
51.30000 94.000
51.32000 124.000
51.34000 108.000
51.36000 120.000
51.38000 118.000
51.40000 95.000
51.42000 122.000
51.44000 114.000
51.46000 103.000
51.48000 106.000
51.50000 107.000
51.52000 101.000
51.54000 107.000
51.56000 95.000
51.58000 105.000
51.60000 103.000
51.62000 98.000
51.64000 94.000
51.66000 97.000
51.68000 93.000
51.70000 111.000
51.72000 110.000
51.74000 102.000
51.76000 96.000
51.78000 121.000
51.80000 120.000
51.82000 115.000
51.84000 104.000
51.86000 108.000
51.88000 104.000
51.90000 135.000
51.92000 111.000
51.94000 113.000
51.96000 114.000
51.98000 122.000
52.00000 118.000
52.02000 118.000
52.04000 122.000
52.06000 122.000
52.08000 120.000
52.10000 133.000
52.12000 123.000
52.14000 126.000
52.16000 136.000
52.18000 121.000
52.20000 128.000
52.22000 135.000
52.24000 131.000
52.26000 134.000
52.28000 157.000
52.30000 151.000
52.32000 195.000
52.34000 230.000
52.36000 242.000
52.38000 284.000
52.40000 311.000
52.42000 367.000
52.44000 388.000
52.46000 347.000
52.48000 355.000
52.50000 346.000
52.52000 324.000
52.54000 349.000
52.56000 306.000
52.58000 259.000
52.60000 337.000
52.62000 278.000
52.64000 248.000
52.66000 222.000
52.68000 204.000
52.70000 174.000
52.72000 143.000
52.74000 137.000
52.76000 139.000
52.78000 126.000
52.80000 118.000
52.82000 108.000
52.84000 116.000
52.86000 113.000
52.88000 108.000
52.90000 101.000
52.92000 101.000
52.94000 102.000
52.96000 99.000
52.98000 85.000
53.00000 106.000
53.02000 102.000
53.04000 105.000
53.06000 104.000
53.08000 114.000
53.10000 98.000
53.12000 116.000
53.14000 103.000
53.16000 87.000
53.18000 98.000
53.20000 110.000
53.22000 106.000
53.24000 107.000
53.26000 112.000
53.28000 77.000
53.30000 102.000
53.32000 103.000
53.34000 85.000
53.36000 117.000
53.38000 102.000
53.40000 110.000
53.42000 117.000
53.44000 118.000
53.46000 116.000
53.48000 98.000
53.50000 107.000
53.52000 84.000
53.54000 99.000
53.56000 86.000
53.58000 102.000
53.60000 101.000
53.62000 101.000
53.64000 87.000
53.66000 88.000
53.68000 107.000
53.70000 102.000
53.72000 113.000
53.74000 102.000
53.76000 80.000
53.78000 97.000
53.80000 105.000
53.82000 78.000
53.84000 93.000
53.86000 88.000
53.88000 95.000
53.90000 99.000
53.92000 101.000
53.94000 101.000
53.96000 111.000
53.98000 91.000
54.00000 104.000
54.02000 88.000
54.04000 73.000
54.06000 108.000
54.08000 78.000
54.10000 89.000
54.12000 93.000
54.14000 95.000
54.16000 95.000
54.18000 109.000
54.20000 107.000
54.22000 81.000
54.24000 96.000
54.26000 94.000
54.28000 105.000
54.30000 90.000
54.32000 95.000
54.34000 82.000
54.36000 122.000
54.38000 99.000
54.40000 102.000
54.42000 119.000
54.44000 125.000
54.46000 116.000
54.48000 148.000
54.50000 130.000
54.52000 149.000
54.54000 164.000
54.56000 177.000
54.58000 211.000
54.60000 214.000
54.62000 184.000
54.64000 188.000
54.66000 206.000
54.68000 180.000
54.70000 166.000
54.72000 145.000
54.74000 156.000
54.76000 173.000
54.78000 139.000
54.80000 146.000
54.82000 132.000
54.84000 101.000
54.86000 116.000
54.88000 123.000
54.90000 114.000
54.92000 127.000
54.94000 103.000
54.96000 80.000
54.98000 107.000
55.00000 110.000
55.02000 113.000
55.04000 102.000
55.06000 109.000
55.08000 108.000
55.10000 106.000
55.12000 116.000
55.14000 92.000
55.16000 117.000
55.18000 100.000
55.20000 105.000
55.22000 97.000
55.24000 105.000
55.26000 109.000
55.28000 101.000
55.30000 99.000
55.32000 96.000
55.34000 102.000
55.36000 99.000
55.38000 88.000
55.40000 91.000
55.42000 97.000
55.44000 83.000
55.46000 90.000
55.48000 82.000
55.50000 76.000
55.52000 90.000
55.54000 92.000
55.56000 91.000
55.58000 90.000
55.60000 101.000
55.62000 79.000
55.64000 66.000
55.66000 99.000
55.68000 87.000
55.70000 98.000
55.72000 103.000
55.74000 74.000
55.76000 80.000
55.78000 96.000
55.80000 95.000
55.82000 87.000
55.84000 85.000
55.86000 108.000
55.88000 94.000
55.90000 83.000
55.92000 95.000
55.94000 81.000
55.96000 84.000
55.98000 69.000
56.00000 104.000
56.02000 92.000
56.04000 94.000
56.06000 100.000
56.08000 105.000
56.10000 93.000
56.12000 95.000
56.14000 96.000
56.16000 82.000
56.18000 81.000
56.20000 71.000
56.22000 94.000
56.24000 86.000
56.26000 86.000
56.28000 85.000
56.30000 96.000
56.32000 84.000
56.34000 79.000
56.36000 81.000
56.38000 78.000
56.40000 85.000
56.42000 92.000
56.44000 95.000
56.46000 91.000
56.48000 93.000
56.50000 100.000
56.52000 90.000
56.54000 88.000
56.56000 89.000
56.58000 87.000
56.60000 104.000
56.62000 93.000
56.64000 85.000
56.66000 78.000
56.68000 99.000
56.70000 86.000
56.72000 82.000
56.74000 115.000
56.76000 86.000
56.78000 91.000
56.80000 72.000
56.82000 85.000
56.84000 83.000
56.86000 88.000
56.88000 91.000
56.90000 81.000
56.92000 82.000
56.94000 107.000
56.96000 99.000
56.98000 73.000
57.00000 97.000
57.02000 91.000
57.04000 91.000
57.06000 92.000
57.08000 78.000
57.10000 109.000
57.12000 68.000
57.14000 94.000
57.16000 99.000
57.18000 109.000
57.20000 108.000
57.22000 105.000
57.24000 89.000
57.26000 110.000
57.28000 108.000
57.30000 91.000
57.32000 100.000
57.34000 97.000
57.36000 82.000
57.38000 74.000
57.40000 95.000
57.42000 86.000
57.44000 98.000
57.46000 94.000
57.48000 98.000
57.50000 90.000
57.52000 112.000
57.54000 113.000
57.56000 84.000
57.58000 90.000
57.60000 83.000
57.62000 88.000
57.64000 86.000
57.66000 94.000
57.68000 95.000
57.70000 86.000
57.72000 89.000
57.74000 94.000
57.76000 85.000
57.78000 89.000
57.80000 103.000
57.82000 101.000
57.84000 113.000
57.86000 104.000
57.88000 75.000
57.90000 81.000
57.92000 92.000
57.94000 91.000
57.96000 85.000
57.98000 115.000
58.00000 80.000
58.02000 90.000
58.04000 83.000
58.06000 92.000
58.08000 104.000
58.10000 87.000
58.12000 79.000
58.14000 86.000
58.16000 94.000
58.18000 117.000
58.20000 113.000
58.22000 106.000
58.24000 93.000
58.26000 92.000
58.28000 85.000
58.30000 94.000
58.32000 101.000
58.34000 98.000
58.36000 78.000
58.38000 98.000
58.40000 93.000
58.42000 99.000
58.44000 103.000
58.46000 100.000
58.48000 88.000
58.50000 106.000
58.52000 117.000
58.54000 133.000
58.56000 119.000
58.58000 134.000
58.60000 151.000
58.62000 178.000
58.64000 195.000
58.66000 214.000
58.68000 199.000
58.70000 228.000
58.72000 241.000
58.74000 240.000
58.76000 224.000
58.78000 208.000
58.80000 189.000
58.82000 188.000
58.84000 195.000
58.86000 172.000
58.88000 191.000
58.90000 170.000
58.92000 160.000
58.94000 128.000
58.96000 140.000
58.98000 121.000
59.00000 127.000
59.02000 115.000
59.04000 113.000
59.06000 105.000
59.08000 106.000
59.10000 109.000
59.12000 93.000
59.14000 99.000
59.16000 92.000
59.18000 103.000
59.20000 110.000
59.22000 122.000
59.24000 113.000
59.26000 99.000
59.28000 134.000
59.30000 103.000
59.32000 94.000
59.34000 95.000
59.36000 104.000
59.38000 114.000
59.40000 98.000
59.42000 98.000
59.44000 97.000
59.46000 99.000
59.48000 104.000
59.50000 93.000
59.52000 81.000
59.54000 95.000
59.56000 91.000
59.58000 107.000
59.60000 113.000
59.62000 93.000
59.64000 95.000
59.66000 77.000
59.68000 100.000
59.70000 105.000
59.72000 85.000
59.74000 92.000
59.76000 88.000
59.78000 84.000
59.80000 99.000
59.82000 82.000
59.84000 77.000
59.86000 93.000
59.88000 99.000
59.90000 106.000
59.92000 96.000
59.94000 99.000
59.96000 100.000
