5.00000 862.000
5.02000 793.000
5.04000 858.000
5.06000 794.000
5.08000 817.000
5.10000 743.000
5.12000 817.000
5.14000 745.000
5.16000 816.000
5.18000 735.000
5.20000 839.000
5.22000 724.000
5.24000 764.000
5.26000 724.000
5.28000 773.000
5.30000 751.000
5.32000 722.000
5.34000 739.000
5.36000 778.000
5.38000 756.000
5.40000 745.000
5.42000 733.000
5.44000 755.000
5.46000 737.000
5.48000 702.000
5.50000 769.000
5.52000 732.000
5.54000 763.000
5.56000 734.000
5.58000 732.000
5.60000 766.000
5.62000 699.000
5.64000 675.000
5.66000 695.000
5.68000 713.000
5.70000 725.000
5.72000 740.000
5.74000 731.000
5.76000 728.000
5.78000 705.000
5.80000 664.000
5.82000 730.000
5.84000 698.000
5.86000 684.000
5.88000 710.000
5.90000 637.000
5.92000 667.000
5.94000 658.000
5.96000 668.000
5.98000 685.000
6.00000 646.000
6.02000 668.000
6.04000 700.000
6.06000 648.000
6.08000 681.000
6.10000 653.000
6.12000 662.000
6.14000 685.000
6.16000 664.000
6.18000 675.000
6.20000 636.000
6.22000 634.000
6.24000 643.000
6.26000 613.000
6.28000 651.000
6.30000 611.000
6.32000 621.000
6.34000 658.000
6.36000 641.000
6.38000 629.000
6.40000 640.000
6.42000 608.000
6.44000 637.000
6.46000 614.000
6.48000 630.000
6.50000 591.000
6.52000 596.000
6.54000 588.000
6.56000 551.000
6.58000 613.000
6.60000 647.000
6.62000 636.000
6.64000 610.000
6.66000 601.000
6.68000 612.000
6.70000 588.000
6.72000 563.000
6.74000 569.000
6.76000 600.000
6.78000 566.000
6.80000 604.000
6.82000 580.000
6.84000 600.000
6.86000 538.000
6.88000 569.000
6.90000 524.000
6.92000 568.000
6.94000 585.000
6.96000 565.000
6.98000 519.000
7.00000 620.000
7.02000 559.000
7.04000 550.000
7.06000 533.000
7.08000 563.000
7.10000 523.000
7.12000 522.000
7.14000 553.000
7.16000 535.000
7.18000 554.000
7.20000 554.000
7.22000 522.000
7.24000 526.000
7.26000 558.000
7.28000 526.000
7.30000 560.000
7.32000 511.000
7.34000 545.000
7.36000 503.000
7.38000 536.000
7.40000 538.000
7.42000 532.000
7.44000 519.000
7.46000 519.000
7.48000 511.000
7.50000 537.000
7.52000 527.000
7.54000 501.000
7.56000 501.000
7.58000 524.000
7.60000 524.000
7.62000 517.000
7.64000 530.000
7.66000 503.000
7.68000 506.000
7.70000 511.000
7.72000 515.000
7.74000 525.000
7.76000 535.000
7.78000 536.000
7.80000 473.000
7.82000 461.000
7.84000 521.000
7.86000 503.000
7.88000 529.000
7.90000 465.000
7.92000 492.000
7.94000 536.000
7.96000 480.000
7.98000 513.000
8.00000 476.000
8.02000 476.000
8.04000 487.000
8.06000 474.000
8.08000 502.000
8.10000 452.000
8.12000 461.000
8.14000 486.000
8.16000 487.000
8.18000 483.000
8.20000 504.000
8.22000 469.000
8.24000 487.000
8.26000 525.000
8.28000 449.000
8.30000 453.000
8.32000 486.000
8.34000 500.000
8.36000 484.000
8.38000 469.000
8.40000 437.000
8.42000 485.000
8.44000 431.000
8.46000 460.000
8.48000 471.000
8.50000 469.000
8.52000 459.000
8.54000 469.000
8.56000 397.000
8.58000 471.000
8.60000 465.000
8.62000 466.000
8.64000 448.000
8.66000 449.000
8.68000 460.000
8.70000 442.000
8.72000 455.000
8.74000 428.000
8.76000 442.000
8.78000 473.000
8.80000 423.000
8.82000 433.000
8.84000 452.000
8.86000 426.000
8.88000 383.000
8.90000 441.000
8.92000 433.000
8.94000 376.000
8.96000 443.000
8.98000 456.000
9.00000 412.000
9.02000 420.000
9.04000 454.000
9.06000 430.000
9.08000 424.000
9.10000 393.000
9.12000 407.000
9.14000 415.000
9.16000 439.000
9.18000 387.000
9.20000 440.000
9.22000 413.000
9.24000 459.000
9.26000 382.000
9.28000 383.000
9.30000 371.000
9.32000 413.000
9.34000 420.000
9.36000 409.000
9.38000 418.000
9.40000 434.000
9.42000 391.000
9.44000 433.000
9.46000 399.000
9.48000 416.000
9.50000 397.000
9.52000 429.000
9.54000 395.000
9.56000 386.000
9.58000 409.000
9.60000 371.000
9.62000 384.000
9.64000 345.000
9.66000 379.000
9.68000 348.000
9.70000 405.000
9.72000 359.000
9.74000 385.000
9.76000 398.000
9.78000 401.000
9.80000 391.000
9.82000 410.000
9.84000 376.000
9.86000 383.000
9.88000 356.000
9.90000 359.000
9.92000 374.000
9.94000 373.000
9.96000 402.000
9.98000 368.000
10.00000 377.000
10.02000 356.000
10.04000 359.000
10.06000 383.000
10.08000 379.000
10.10000 375.000
10.12000 379.000
10.14000 382.000
10.16000 352.000
10.18000 399.000
10.20000 386.000
10.22000 371.000
10.24000 345.000
10.26000 361.000
10.28000 371.000
10.30000 387.000
10.32000 378.000
10.34000 381.000
10.36000 356.000
10.38000 340.000
10.40000 332.000
10.42000 359.000
10.44000 347.000
10.46000 384.000
10.48000 349.000
10.50000 382.000
10.52000 373.000
10.54000 335.000
10.56000 339.000
10.58000 346.000
10.60000 367.000
10.62000 344.000
10.64000 379.000
10.66000 350.000
10.68000 354.000
10.70000 364.000
10.72000 344.000
10.74000 342.000
10.76000 339.000
10.78000 360.000
10.80000 362.000
10.82000 346.000
10.84000 316.000
10.86000 338.000
10.88000 337.000
10.90000 341.000
10.92000 312.000
10.94000 322.000
10.96000 367.000
10.98000 326.000
11.00000 353.000
11.02000 340.000
11.04000 342.000
11.06000 394.000
11.08000 365.000
11.10000 361.000
11.12000 393.000
11.14000 370.000
11.16000 356.000
11.18000 401.000
11.20000 401.000
11.22000 358.000
11.24000 361.000
11.26000 385.000
11.28000 363.000
11.30000 403.000
11.32000 399.000
11.34000 355.000
11.36000 407.000
11.38000 400.000
11.40000 401.000
11.42000 417.000
11.44000 447.000
11.46000 446.000
11.48000 451.000
11.50000 453.000
11.52000 456.000
11.54000 477.000
11.56000 522.000
11.58000 542.000
11.60000 544.000
11.62000 516.000
11.64000 506.000
11.66000 524.000
11.68000 500.000
11.70000 496.000
11.72000 525.000
11.74000 507.000
11.76000 477.000
11.78000 519.000
11.80000 507.000
11.82000 471.000
11.84000 463.000
11.86000 493.000
11.88000 492.000
11.90000 560.000
11.92000 482.000
11.94000 532.000
11.96000 509.000
11.98000 550.000
12.00000 506.000
12.02000 505.000
12.04000 557.000
12.06000 577.000
12.08000 582.000
12.10000 564.000
12.12000 597.000
12.14000 621.000
12.16000 609.000
12.18000 618.000
12.20000 645.000
12.22000 608.000
12.24000 636.000
12.26000 695.000
12.28000 673.000
12.30000 701.000
12.32000 681.000
12.34000 696.000
12.36000 706.000
12.38000 790.000
12.40000 772.000
12.42000 798.000
12.44000 814.000
12.46000 852.000
12.48000 860.000
12.50000 945.000
12.52000 998.000
12.54000 1008.000
12.56000 1023.000
12.58000 1118.000
12.60000 1208.000
12.62000 1270.000
12.64000 1362.000
12.66000 1425.000
12.68000 1417.000
12.70000 1321.000
12.72000 1221.000
12.74000 1043.000
12.76000 997.000
12.78000 998.000
12.80000 848.000
12.82000 748.000
12.84000 765.000
12.86000 655.000
12.88000 625.000
12.90000 648.000
12.92000 577.000
12.94000 515.000
12.96000 535.000
12.98000 526.000
13.00000 504.000
13.02000 517.000
13.04000 532.000
13.06000 507.000
13.08000 499.000
13.10000 517.000
13.12000 498.000
13.14000 483.000
13.16000 510.000
13.18000 539.000
13.20000 506.000
13.22000 548.000
13.24000 470.000
13.26000 502.000
13.28000 520.000
13.30000 537.000
13.32000 525.000
13.34000 556.000
13.36000 531.000
13.38000 551.000
13.40000 536.000
13.42000 533.000
13.44000 592.000
13.46000 569.000
13.48000 585.000
13.50000 622.000
13.52000 610.000
13.54000 677.000
13.56000 643.000
13.58000 651.000
13.60000 644.000
13.62000 717.000
13.64000 754.000
13.66000 763.000
13.68000 744.000
13.70000 815.000
13.72000 828.000
13.74000 878.000
13.76000 926.000
13.78000 949.000
13.80000 1053.000
13.82000 1106.000
13.84000 1203.000
13.86000 1187.000
13.88000 1309.000
13.90000 1422.000
13.92000 1510.000
13.94000 1635.000
13.96000 1657.000
13.98000 1809.000
14.00000 2020.000
14.02000 2143.000
14.04000 2290.000
14.06000 2587.000
14.08000 2501.000
14.10000 2414.000
14.12000 2288.000
14.14000 2041.000
14.16000 1763.000
14.18000 1366.000
14.20000 1126.000
14.22000 1041.000
14.24000 917.000
14.26000 783.000
14.28000 684.000
14.30000 597.000
14.32000 557.000
14.34000 551.000
14.36000 456.000
14.38000 487.000
14.40000 447.000
14.42000 463.000
14.44000 404.000
14.46000 404.000
14.48000 387.000
14.50000 371.000
14.52000 441.000
14.54000 366.000
14.56000 368.000
14.58000 326.000
14.60000 332.000
14.62000 336.000
14.64000 331.000
14.66000 335.000
14.68000 318.000
14.70000 318.000
14.72000 306.000
14.74000 292.000
14.76000 295.000
14.78000 281.000
14.80000 327.000
14.82000 261.000
14.84000 321.000
14.86000 282.000
14.88000 260.000
14.90000 305.000
14.92000 261.000
14.94000 241.000
14.96000 286.000
14.98000 246.000
15.00000 256.000
15.02000 283.000
15.04000 256.000
15.06000 253.000
15.08000 261.000
15.10000 231.000
15.12000 259.000
15.14000 223.000
15.16000 290.000
15.18000 271.000
15.20000 267.000
15.22000 228.000
15.24000 244.000
15.26000 264.000
15.28000 262.000
15.30000 274.000
15.32000 246.000
15.34000 243.000
15.36000 259.000
15.38000 229.000
15.40000 241.000
15.42000 238.000
15.44000 243.000
15.46000 225.000
15.48000 247.000
15.50000 211.000
15.52000 281.000
15.54000 243.000
15.56000 207.000
15.58000 227.000
15.60000 221.000
15.62000 265.000
15.64000 258.000
15.66000 232.000
15.68000 266.000
15.70000 235.000
15.72000 246.000
15.74000 238.000
15.76000 252.000
15.78000 233.000
15.80000 248.000
15.82000 232.000
15.84000 241.000
15.86000 227.000
15.88000 257.000
15.90000 256.000
15.92000 237.000
15.94000 208.000
15.96000 206.000
15.98000 218.000
16.00000 229.000
16.02000 251.000
16.04000 221.000
16.06000 210.000
16.08000 230.000
16.10000 255.000
16.12000 239.000
16.14000 239.000
16.16000 234.000
16.18000 251.000
16.20000 206.000
16.22000 217.000
16.24000 233.000
16.26000 237.000
16.28000 216.000
16.30000 246.000
16.32000 233.000
16.34000 222.000
16.36000 241.000
16.38000 221.000
16.40000 242.000
16.42000 227.000
16.44000 227.000
16.46000 238.000
16.48000 205.000
16.50000 234.000
16.52000 217.000
16.54000 220.000
16.56000 195.000
16.58000 246.000
16.60000 215.000
16.62000 222.000
16.64000 234.000
16.66000 219.000
16.68000 234.000
16.70000 217.000
16.72000 206.000
16.74000 212.000
16.76000 233.000
16.78000 229.000
16.80000 229.000
16.82000 222.000
16.84000 192.000
16.86000 228.000
16.88000 197.000
16.90000 208.000
16.92000 204.000
16.94000 220.000
16.96000 205.000
16.98000 205.000
17.00000 244.000
17.02000 203.000
17.04000 211.000
17.06000 237.000
17.08000 212.000
17.10000 205.000
17.12000 225.000
17.14000 216.000
17.16000 196.000
17.18000 215.000
17.20000 214.000
17.22000 235.000
17.24000 221.000
17.26000 235.000
17.28000 200.000
17.30000 222.000
17.32000 228.000
17.34000 223.000
17.36000 227.000
17.38000 189.000
17.40000 208.000
17.42000 224.000
17.44000 232.000
17.46000 193.000
17.48000 231.000
17.50000 230.000
17.52000 211.000
17.54000 215.000
17.56000 236.000
17.58000 237.000
17.60000 189.000
17.62000 202.000
17.64000 208.000
17.66000 225.000
17.68000 228.000
17.70000 199.000
17.72000 212.000
17.74000 220.000
17.76000 200.000
17.78000 226.000
17.80000 205.000
17.82000 211.000
17.84000 203.000
17.86000 213.000
17.88000 196.000
17.90000 205.000
17.92000 214.000
17.94000 192.000
17.96000 187.000
17.98000 223.000
18.00000 219.000
18.02000 210.000
18.04000 229.000
18.06000 206.000
18.08000 197.000
18.10000 229.000
18.12000 194.000
18.14000 218.000
18.16000 215.000
18.18000 207.000
18.20000 248.000
18.22000 213.000
18.24000 217.000
18.26000 221.000
18.28000 203.000
18.30000 218.000
18.32000 199.000
18.34000 190.000
18.36000 249.000
18.38000 200.000
18.40000 188.000
18.42000 236.000
18.44000 205.000
18.46000 202.000
18.48000 178.000
18.50000 213.000
18.52000 186.000
18.54000 200.000
18.56000 217.000
18.58000 243.000
18.60000 214.000
18.62000 217.000
18.64000 197.000
18.66000 221.000
18.68000 213.000
18.70000 230.000
18.72000 209.000
18.74000 219.000
18.76000 214.000
18.78000 218.000
18.80000 210.000
18.82000 202.000
18.84000 199.000
18.86000 190.000
18.88000 172.000
18.90000 223.000
18.92000 198.000
18.94000 212.000
18.96000 223.000
18.98000 208.000
19.00000 200.000
19.02000 185.000
19.04000 208.000
19.06000 219.000
19.08000 212.000
19.10000 221.000
19.12000 198.000
19.14000 233.000
19.16000 225.000
19.18000 225.000
19.20000 202.000
19.22000 196.000
19.24000 215.000
19.26000 221.000
19.28000 212.000
19.30000 212.000
19.32000 236.000
19.34000 227.000
19.36000 209.000
19.38000 214.000
19.40000 214.000
19.42000 212.000
19.44000 231.000
19.46000 229.000
19.48000 251.000
19.50000 243.000
19.52000 222.000
19.54000 224.000
19.56000 254.000
19.58000 236.000
19.60000 245.000
19.62000 271.000
19.64000 256.000
19.66000 268.000
19.68000 276.000
19.70000 303.000
19.72000 301.000
19.74000 320.000
19.76000 379.000
19.78000 399.000
19.80000 369.000
19.82000 420.000
19.84000 452.000
19.86000 491.000
19.88000 561.000
19.90000 582.000
19.92000 711.000
19.94000 744.000
19.96000 752.000
19.98000 747.000
20.00000 696.000
20.02000 695.000
20.04000 679.000
20.06000 634.000
20.08000 526.000
20.10000 458.000
20.12000 443.000
20.14000 368.000
20.16000 350.000
20.18000 332.000
20.20000 328.000
20.22000 290.000
20.24000 273.000
20.26000 252.000
20.28000 277.000
20.30000 207.000
20.32000 252.000
20.34000 240.000
20.36000 222.000
20.38000 245.000
20.40000 197.000
20.42000 226.000
20.44000 208.000
20.46000 213.000
20.48000 225.000
20.50000 210.000
20.52000 203.000
20.54000 248.000
20.56000 211.000
20.58000 195.000
20.60000 224.000
20.62000 217.000
20.64000 218.000
20.66000 198.000
20.68000 208.000
20.70000 206.000
20.72000 214.000
20.74000 210.000
20.76000 206.000
20.78000 194.000
20.80000 234.000
20.82000 175.000
20.84000 187.000
20.86000 219.000
20.88000 219.000
20.90000 208.000
20.92000 229.000
20.94000 218.000
20.96000 235.000
20.98000 178.000
21.00000 197.000
21.02000 210.000
21.04000 218.000
21.06000 215.000
21.08000 206.000
21.10000 192.000
21.12000 184.000
21.14000 218.000
21.16000 194.000
21.18000 212.000
21.20000 188.000
21.22000 225.000
21.24000 214.000
21.26000 191.000
21.28000 207.000
21.30000 210.000
21.32000 220.000
21.34000 246.000
21.36000 218.000
21.38000 202.000
21.40000 222.000
21.42000 193.000
21.44000 227.000
21.46000 226.000
21.48000 197.000
21.50000 221.000
21.52000 237.000
21.54000 235.000
21.56000 201.000
21.58000 202.000
21.60000 218.000
21.62000 197.000
21.64000 218.000
21.66000 246.000
21.68000 215.000
21.70000 218.000
21.72000 250.000
21.74000 217.000
21.76000 209.000
21.78000 179.000
21.80000 224.000
21.82000 223.000
21.84000 209.000
21.86000 207.000
21.88000 234.000
21.90000 225.000
21.92000 200.000
21.94000 226.000
21.96000 212.000
21.98000 211.000
22.00000 212.000
22.02000 231.000
22.04000 212.000
22.06000 245.000
22.08000 209.000
22.10000 232.000
22.12000 232.000
22.14000 210.000
22.16000 224.000
22.18000 229.000
22.20000 201.000
22.22000 219.000
22.24000 235.000
22.26000 212.000
22.28000 230.000
22.30000 192.000
22.32000 199.000
22.34000 215.000
22.36000 231.000
22.38000 242.000
22.40000 232.000
22.42000 208.000
22.44000 218.000
22.46000 233.000
22.48000 241.000
22.50000 236.000
22.52000 209.000
22.54000 246.000
22.56000 216.000
22.58000 212.000
22.60000 206.000
22.62000 225.000
22.64000 198.000
22.66000 216.000
22.68000 220.000
22.70000 221.000
22.72000 215.000
22.74000 209.000
22.76000 268.000
22.78000 213.000
22.80000 205.000
22.82000 221.000
22.84000 224.000
22.86000 213.000
22.88000 220.000
22.90000 246.000
22.92000 249.000
22.94000 255.000
22.96000 220.000
22.98000 241.000
23.00000 221.000
23.02000 206.000
23.04000 230.000
23.06000 230.000
23.08000 233.000
23.10000 257.000
23.12000 233.000
23.14000 233.000
23.16000 242.000
23.18000 243.000
23.20000 206.000
23.22000 224.000
23.24000 250.000
23.26000 212.000
23.28000 213.000
23.30000 245.000
23.32000 251.000
23.34000 234.000
23.36000 248.000
23.38000 253.000
23.40000 202.000
23.42000 238.000
23.44000 250.000
23.46000 245.000
23.48000 248.000
23.50000 249.000
23.52000 247.000
23.54000 230.000
23.56000 222.000
23.58000 237.000
23.60000 232.000
23.62000 244.000
23.64000 237.000
23.66000 254.000
23.68000 239.000
23.70000 256.000
23.72000 226.000
23.74000 257.000
23.76000 267.000
23.78000 242.000
23.80000 245.000
23.82000 242.000
23.84000 268.000
23.86000 242.000
23.88000 262.000
23.90000 234.000
23.92000 246.000
23.94000 250.000
23.96000 237.000
23.98000 233.000
24.00000 247.000
24.02000 271.000
24.04000 283.000
24.06000 246.000
24.08000 283.000
24.10000 277.000
24.12000 274.000
24.14000 279.000
24.16000 261.000
24.18000 353.000
24.20000 316.000
24.22000 330.000
24.24000 350.000
24.26000 358.000
24.28000 408.000
24.30000 434.000
24.32000 445.000
24.34000 554.000
24.36000 538.000
24.38000 578.000
24.40000 681.000
24.42000 730.000
24.44000 861.000
24.46000 899.000
24.48000 974.000
24.50000 1058.000
24.52000 1071.000
24.54000 1099.000
24.56000 999.000
24.58000 902.000
24.60000 783.000
24.62000 702.000
24.64000 696.000
24.66000 546.000
24.68000 530.000
24.70000 467.000
24.72000 468.000
24.74000 422.000
24.76000 408.000
24.78000 370.000
24.80000 364.000
24.82000 368.000
24.84000 326.000
24.86000 323.000
24.88000 328.000
24.90000 313.000
24.92000 376.000
24.94000 305.000
24.96000 321.000
24.98000 333.000
25.00000 304.000
25.02000 318.000
25.04000 273.000
25.06000 311.000
25.08000 286.000
25.10000 296.000
25.12000 276.000
25.14000 311.000
25.16000 273.000
25.18000 262.000
25.20000 275.000
25.22000 287.000
25.24000 279.000
25.26000 295.000
25.28000 281.000
25.30000 258.000
25.32000 239.000
25.34000 314.000
25.36000 249.000
25.38000 280.000
25.40000 259.000
25.42000 265.000
25.44000 282.000
25.46000 295.000
25.48000 304.000
25.50000 274.000
25.52000 271.000
25.54000 278.000
25.56000 286.000
25.58000 320.000
25.60000 257.000
25.62000 269.000
25.64000 266.000
25.66000 288.000
25.68000 266.000
25.70000 277.000
25.72000 289.000
25.74000 318.000
25.76000 242.000
25.78000 261.000
25.80000 292.000
25.82000 282.000
25.84000 282.000
25.86000 293.000
25.88000 257.000
25.90000 299.000
25.92000 319.000
25.94000 295.000
25.96000 327.000
25.98000 337.000
26.00000 308.000
26.02000 303.000
26.04000 303.000
26.06000 333.000
26.08000 357.000
26.10000 306.000
26.12000 330.000
26.14000 368.000
26.16000 324.000
26.18000 339.000
26.20000 343.000
26.22000 331.000
26.24000 375.000
26.26000 330.000
26.28000 356.000
26.30000 307.000
26.32000 330.000
26.34000 332.000
26.36000 335.000
26.38000 302.000
26.40000 320.000
26.42000 263.000
26.44000 305.000
26.46000 298.000
26.48000 283.000
26.50000 288.000
26.52000 261.000
26.54000 265.000
26.56000 263.000
26.58000 268.000
26.60000 306.000
26.62000 305.000
26.64000 259.000
26.66000 283.000
26.68000 282.000
26.70000 253.000
26.72000 286.000
26.74000 244.000
26.76000 284.000
26.78000 258.000
26.80000 305.000
26.82000 259.000
26.84000 255.000
26.86000 251.000
26.88000 267.000
26.90000 275.000
26.92000 267.000
26.94000 289.000
26.96000 283.000
26.98000 293.000
27.00000 298.000
27.02000 287.000
27.04000 290.000
27.06000 287.000
27.08000 299.000
27.10000 307.000
27.12000 316.000
27.14000 305.000
27.16000 336.000
27.18000 322.000
27.20000 292.000
27.22000 296.000
27.24000 248.000
27.26000 295.000
27.28000 311.000
27.30000 288.000
27.32000 335.000
27.34000 305.000
27.36000 271.000
27.38000 308.000
27.40000 300.000
27.42000 306.000
27.44000 291.000
27.46000 330.000
27.48000 328.000
27.50000 305.000
27.52000 323.000
27.54000 357.000
27.56000 338.000
27.58000 371.000
27.60000 354.000
27.62000 353.000
27.64000 355.000
27.66000 369.000
27.68000 385.000
27.70000 371.000
27.72000 379.000
27.74000 396.000
27.76000 391.000
27.78000 380.000
27.80000 407.000
27.82000 448.000
27.84000 442.000
27.86000 473.000
27.88000 439.000
27.90000 457.000
27.92000 464.000
27.94000 525.000
27.96000 477.000
27.98000 556.000
28.00000 530.000
28.02000 587.000
28.04000 581.000
28.06000 657.000
28.08000 758.000
28.10000 795.000
28.12000 803.000
28.14000 916.000
28.16000 929.000
28.18000 1051.000
28.20000 1122.000
28.22000 1189.000
28.24000 1401.000
28.26000 1513.000
28.28000 1722.000
28.30000 1968.000
28.32000 2109.000
28.34000 2273.000
28.36000 2446.000
28.38000 2463.000
28.40000 2537.000
28.42000 2308.000
28.44000 2173.000
28.46000 1886.000
28.48000 1563.000
28.50000 1399.000
28.52000 1156.000
28.54000 1038.000
28.56000 852.000
28.58000 759.000
28.60000 701.000
28.62000 581.000
28.64000 513.000
28.66000 471.000
28.68000 468.000
28.70000 428.000
28.72000 416.000
28.74000 379.000
28.76000 379.000
28.78000 374.000
28.80000 358.000
28.82000 368.000
28.84000 342.000
28.86000 383.000
28.88000 347.000
28.90000 331.000
28.92000 339.000
28.94000 325.000
28.96000 352.000
28.98000 328.000
29.00000 327.000
29.02000 330.000
29.04000 266.000
29.06000 345.000
29.08000 328.000
29.10000 280.000
29.12000 315.000
29.14000 323.000
29.16000 296.000
29.18000 296.000
29.20000 322.000
29.22000 340.000
29.24000 302.000
29.26000 304.000
29.28000 278.000
29.30000 299.000
29.32000 294.000
29.34000 271.000
29.36000 301.000
29.38000 289.000
29.40000 299.000
29.42000 273.000
29.44000 272.000
29.46000 287.000
29.48000 272.000
29.50000 269.000
29.52000 290.000
29.54000 280.000
29.56000 279.000
29.58000 291.000
29.60000 275.000
29.62000 260.000
29.64000 264.000
29.66000 269.000
29.68000 248.000
29.70000 268.000
29.72000 227.000
29.74000 265.000
29.76000 285.000
29.78000 240.000
29.80000 231.000
29.82000 264.000
29.84000 269.000
29.86000 264.000
29.88000 248.000
29.90000 276.000
29.92000 250.000
29.94000 289.000
29.96000 265.000
29.98000 262.000
30.00000 287.000
30.02000 269.000
30.04000 265.000
30.06000 267.000
30.08000 247.000
30.10000 259.000
30.12000 225.000
30.14000 262.000
30.16000 268.000
30.18000 273.000
30.20000 260.000
30.22000 273.000
30.24000 308.000
30.26000 266.000
30.28000 268.000
30.30000 250.000
30.32000 254.000
30.34000 285.000
30.36000 278.000
30.38000 273.000
30.40000 281.000
30.42000 258.000
30.44000 305.000
30.46000 309.000
30.48000 273.000
30.50000 273.000
30.52000 293.000
30.54000 271.000
30.56000 284.000
30.58000 283.000
30.60000 265.000
30.62000 271.000
30.64000 256.000
30.66000 253.000
30.68000 252.000
30.70000 268.000
30.72000 239.000
30.74000 239.000
30.76000 264.000
30.78000 275.000
30.80000 307.000
30.82000 261.000
30.84000 288.000
30.86000 295.000
30.88000 315.000
30.90000 325.000
30.92000 299.000
30.94000 325.000
30.96000 352.000
30.98000 318.000
31.00000 317.000
31.02000 313.000
31.04000 351.000
31.06000 311.000
31.08000 358.000
31.10000 366.000
31.12000 371.000
31.14000 340.000
31.16000 381.000
31.18000 340.000
31.20000 381.000
31.22000 422.000
31.24000 407.000
31.26000 408.000
31.28000 407.000
31.30000 417.000
31.32000 454.000
31.34000 449.000
31.36000 515.000
31.38000 525.000
31.40000 523.000
31.42000 554.000
31.44000 569.000
31.46000 634.000
31.48000 651.000
31.50000 671.000
31.52000 768.000
31.54000 837.000
31.56000 838.000
31.58000 953.000
31.60000 996.000
31.62000 1158.000
31.64000 1190.000
31.66000 1358.000
31.68000 1506.000
31.70000 1740.000
31.72000 1900.000
31.74000 2192.000
31.76000 2450.000
31.78000 2711.000
31.80000 2794.000
31.82000 2818.000
31.84000 2701.000
31.86000 2495.000
31.88000 2290.000
31.90000 2005.000
31.92000 1721.000
31.94000 1554.000
31.96000 1323.000
31.98000 1066.000
32.00000 938.000
32.02000 816.000
32.04000 712.000
32.06000 640.000
32.08000 608.000
32.10000 556.000
32.12000 528.000
32.14000 500.000
32.16000 515.000
32.18000 444.000
32.20000 386.000
32.22000 382.000
32.24000 359.000
32.26000 358.000
32.28000 306.000
32.30000 278.000
32.32000 289.000
32.34000 279.000
32.36000 280.000
32.38000 247.000
32.40000 271.000
32.42000 261.000
32.44000 283.000
32.46000 244.000
32.48000 240.000
32.50000 219.000
32.52000 246.000
32.54000 261.000
32.56000 219.000
32.58000 202.000
32.60000 227.000
32.62000 216.000
32.64000 217.000
32.66000 211.000
32.68000 227.000
32.70000 226.000
32.72000 209.000
32.74000 198.000
32.76000 216.000
32.78000 203.000
32.80000 179.000
32.82000 232.000
32.84000 209.000
32.86000 223.000
32.88000 224.000
32.90000 207.000
32.92000 216.000
32.94000 179.000
32.96000 195.000
32.98000 189.000
33.00000 181.000
33.02000 212.000
33.04000 226.000
33.06000 244.000
33.08000 200.000
33.10000 207.000
33.12000 190.000
33.14000 200.000
33.16000 214.000
33.18000 200.000
33.20000 222.000
33.22000 189.000
33.24000 216.000
33.26000 165.000
33.28000 181.000
33.30000 211.000
33.32000 201.000
33.34000 186.000
33.36000 215.000
33.38000 225.000
33.40000 213.000
33.42000 209.000
33.44000 181.000
33.46000 200.000
33.48000 191.000
33.50000 194.000
33.52000 166.000
33.54000 182.000
33.56000 172.000
33.58000 182.000
33.60000 198.000
33.62000 170.000
33.64000 179.000
33.66000 168.000
33.68000 163.000
33.70000 185.000
33.72000 176.000
33.74000 177.000
33.76000 151.000
33.78000 193.000
33.80000 177.000
33.82000 160.000
33.84000 174.000
33.86000 187.000
33.88000 177.000
33.90000 168.000
33.92000 185.000
33.94000 176.000
33.96000 200.000
33.98000 184.000
34.00000 169.000
34.02000 192.000
34.04000 176.000
34.06000 184.000
34.08000 179.000
34.10000 163.000
34.12000 183.000
34.14000 176.000
34.16000 203.000
34.18000 182.000
34.20000 163.000
34.22000 202.000
34.24000 179.000
34.26000 163.000
34.28000 178.000
34.30000 175.000
34.32000 174.000
34.34000 185.000
34.36000 196.000
34.38000 183.000
34.40000 157.000
34.42000 142.000
34.44000 198.000
34.46000 173.000
34.48000 167.000
34.50000 140.000
34.52000 184.000
34.54000 145.000
34.56000 187.000
34.58000 176.000
34.60000 186.000
34.62000 207.000
34.64000 212.000
34.66000 192.000
34.68000 241.000
34.70000 231.000
34.72000 242.000
34.74000 270.000
34.76000 276.000
34.78000 272.000
34.80000 283.000
34.82000 380.000
34.84000 335.000
34.86000 391.000
34.88000 454.000
34.90000 504.000
34.92000 517.000
34.94000 577.000
34.96000 560.000
34.98000 511.000
35.00000 528.000
35.02000 486.000
35.04000 426.000
35.06000 394.000
35.08000 374.000
35.10000 377.000
35.12000 312.000
35.14000 266.000
35.16000 295.000
35.18000 250.000
35.20000 287.000
35.22000 261.000
35.24000 230.000
35.26000 246.000
35.28000 237.000
35.30000 231.000
35.32000 201.000
35.34000 207.000
35.36000 216.000
35.38000 194.000
35.40000 172.000
35.42000 183.000
35.44000 148.000
35.46000 187.000
35.48000 174.000
35.50000 163.000
35.52000 195.000
35.54000 151.000
35.56000 151.000
35.58000 165.000
35.60000 205.000
35.62000 173.000
35.64000 176.000
35.66000 154.000
35.68000 177.000
35.70000 152.000
35.72000 144.000
35.74000 132.000
35.76000 142.000
35.78000 161.000
35.80000 169.000
35.82000 154.000
35.84000 169.000
35.86000 129.000
35.88000 161.000
35.90000 173.000
35.92000 147.000
35.94000 162.000
35.96000 149.000
35.98000 184.000
36.00000 153.000
36.02000 166.000
36.04000 174.000
36.06000 147.000
36.08000 155.000
36.10000 164.000
36.12000 165.000
36.14000 157.000
36.16000 154.000
36.18000 162.000
36.20000 157.000
36.22000 140.000
36.24000 155.000
36.26000 164.000
36.28000 159.000
36.30000 151.000
36.32000 155.000
36.34000 158.000
36.36000 153.000
36.38000 174.000
36.40000 187.000
36.42000 148.000
36.44000 166.000
36.46000 163.000
36.48000 138.000
36.50000 167.000
36.52000 168.000
36.54000 168.000
36.56000 161.000
36.58000 167.000
36.60000 140.000
36.62000 138.000
36.64000 188.000
36.66000 161.000
36.68000 147.000
36.70000 170.000
36.72000 154.000
36.74000 145.000
36.76000 159.000
36.78000 191.000
36.80000 149.000
36.82000 147.000
36.84000 163.000
36.86000 165.000
36.88000 180.000
36.90000 174.000
36.92000 167.000
36.94000 179.000
36.96000 165.000
36.98000 164.000
37.00000 141.000
37.02000 152.000
37.04000 166.000
37.06000 163.000
37.08000 178.000
37.10000 138.000
37.12000 146.000
37.14000 162.000
37.16000 160.000
37.18000 132.000
37.20000 152.000
37.22000 165.000
37.24000 154.000
37.26000 153.000
37.28000 149.000
37.30000 154.000
37.32000 135.000
37.34000 146.000
37.36000 132.000
37.38000 166.000
37.40000 140.000
37.42000 174.000
37.44000 165.000
37.46000 151.000
37.48000 162.000
37.50000 132.000
37.52000 151.000
37.54000 157.000
37.56000 152.000
37.58000 137.000
37.60000 160.000
37.62000 151.000
37.64000 166.000
37.66000 130.000
37.68000 154.000
37.70000 160.000
37.72000 141.000
37.74000 133.000
37.76000 149.000
37.78000 157.000
37.80000 138.000
37.82000 164.000
37.84000 168.000
37.86000 149.000
37.88000 156.000
37.90000 135.000
37.92000 140.000
37.94000 134.000
37.96000 140.000
37.98000 148.000
38.00000 141.000
38.02000 153.000
38.04000 155.000
38.06000 157.000
38.08000 143.000
38.10000 141.000
38.12000 137.000
38.14000 141.000
38.16000 140.000
38.18000 131.000
38.20000 139.000
38.22000 185.000
38.24000 156.000
38.26000 132.000
38.28000 150.000
38.30000 141.000
38.32000 157.000
38.34000 154.000
38.36000 159.000
38.38000 171.000
38.40000 149.000
38.42000 170.000
38.44000 186.000
38.46000 166.000
38.48000 177.000
38.50000 173.000
38.52000 168.000
38.54000 186.000
38.56000 192.000
38.58000 226.000
38.60000 210.000
38.62000 213.000
38.64000 193.000
38.66000 208.000
38.68000 205.000
38.70000 213.000
38.72000 191.000
38.74000 196.000
38.76000 206.000
38.78000 198.000
38.80000 215.000
38.82000 216.000
38.84000 199.000
38.86000 187.000
38.88000 168.000
38.90000 172.000
38.92000 179.000
38.94000 158.000
38.96000 199.000
38.98000 173.000
39.00000 172.000
39.02000 199.000
39.04000 186.000
39.06000 158.000
39.08000 155.000
39.10000 164.000
39.12000 185.000
39.14000 146.000
39.16000 155.000
39.18000 174.000
39.20000 135.000
39.22000 167.000
39.24000 160.000
39.26000 160.000
39.28000 152.000
39.30000 164.000
39.32000 176.000
39.34000 138.000
39.36000 149.000
39.38000 165.000
39.40000 168.000
39.42000 155.000
39.44000 160.000
39.46000 157.000
39.48000 153.000
39.50000 194.000
39.52000 168.000
39.54000 180.000
39.56000 181.000
39.58000 161.000
39.60000 190.000
39.62000 175.000
39.64000 174.000
39.66000 152.000
39.68000 172.000
39.70000 185.000
39.72000 180.000
39.74000 151.000
39.76000 152.000
39.78000 178.000
39.80000 192.000
39.82000 164.000
39.84000 183.000
39.86000 156.000
39.88000 157.000
39.90000 186.000
39.92000 192.000
39.94000 204.000
39.96000 175.000
39.98000 173.000
40.00000 174.000
40.02000 172.000
40.04000 190.000
40.06000 183.000
40.08000 171.000
40.10000 212.000
40.12000 196.000
40.14000 212.000
40.16000 192.000
40.18000 207.000
40.20000 202.000
40.22000 228.000
40.24000 242.000
40.26000 270.000
40.28000 288.000
40.30000 281.000
40.32000 365.000
40.34000 371.000
40.36000 434.000
40.38000 468.000
40.40000 555.000
40.42000 557.000
40.44000 695.000
40.46000 881.000
40.48000 1017.000
40.50000 1156.000
40.52000 1279.000
40.54000 1377.000
40.56000 1516.000
40.58000 1579.000
40.60000 1584.000
40.62000 1517.000
40.64000 1379.000
40.66000 1404.000
40.68000 1285.000
40.70000 1190.000
40.72000 1005.000
40.74000 915.000
40.76000 845.000
40.78000 791.000
40.80000 729.000
40.82000 752.000
40.84000 644.000
40.86000 591.000
40.88000 556.000
40.90000 541.000
40.92000 513.000
40.94000 467.000
40.96000 490.000
40.98000 431.000
41.00000 388.000
41.02000 342.000
41.04000 313.000
41.06000 280.000
41.08000 310.000
41.10000 261.000
41.12000 256.000
41.14000 257.000
41.16000 246.000
41.18000 278.000
41.20000 242.000
41.22000 216.000
41.24000 237.000
41.26000 226.000
41.28000 232.000
41.30000 218.000
41.32000 202.000
41.34000 208.000
41.36000 188.000
41.38000 201.000
41.40000 210.000
41.42000 186.000
41.44000 188.000
41.46000 207.000
41.48000 223.000
41.50000 197.000
41.52000 191.000
41.54000 218.000
41.56000 219.000
41.58000 177.000
41.60000 170.000
41.62000 213.000
41.64000 185.000
41.66000 170.000
41.68000 168.000
41.70000 189.000
41.72000 158.000
41.74000 195.000
41.76000 172.000
41.78000 177.000
41.80000 168.000
41.82000 168.000
41.84000 143.000
41.86000 163.000
41.88000 185.000
41.90000 151.000
41.92000 180.000
41.94000 169.000
41.96000 163.000
41.98000 142.000
42.00000 208.000
42.02000 167.000
42.04000 175.000
42.06000 173.000
42.08000 176.000
42.10000 161.000
42.12000 155.000
42.14000 194.000
42.16000 157.000
42.18000 185.000
42.20000 183.000
42.22000 149.000
42.24000 166.000
42.26000 184.000
42.28000 177.000
42.30000 157.000
42.32000 162.000
42.34000 153.000
42.36000 176.000
42.38000 168.000
42.40000 175.000
42.42000 186.000
42.44000 175.000
42.46000 179.000
42.48000 173.000
42.50000 188.000
42.52000 211.000
42.54000 173.000
42.56000 196.000
42.58000 203.000
42.60000 205.000
42.62000 212.000
42.64000 197.000
42.66000 210.000
42.68000 197.000
42.70000 233.000
42.72000 223.000
42.74000 214.000
42.76000 240.000
42.78000 285.000
42.80000 239.000
42.82000 282.000
42.84000 291.000
42.86000 321.000
42.88000 355.000
42.90000 372.000
42.92000 442.000
42.94000 472.000
42.96000 559.000
42.98000 582.000
43.00000 701.000
43.02000 803.000
43.04000 968.000
43.06000 1112.000
43.08000 1243.000
43.10000 1358.000
43.12000 1454.000
43.14000 1480.000
43.16000 1491.000
43.18000 1410.000
43.20000 1371.000
43.22000 1286.000
43.24000 1164.000
43.26000 1095.000
43.28000 917.000
43.30000 833.000
43.32000 714.000
43.34000 618.000
43.36000 537.000
43.38000 484.000
43.40000 419.000
43.42000 383.000
43.44000 358.000
43.46000 301.000
43.48000 295.000
43.50000 315.000
43.52000 258.000
43.54000 288.000
43.56000 273.000
43.58000 245.000
43.60000 247.000
43.62000 232.000
43.64000 211.000
43.66000 195.000
43.68000 227.000
43.70000 185.000
43.72000 206.000
43.74000 190.000
43.76000 177.000
43.78000 192.000
43.80000 153.000
43.82000 157.000
43.84000 163.000
43.86000 172.000
43.88000 170.000
43.90000 143.000
43.92000 148.000
43.94000 150.000
43.96000 183.000
43.98000 147.000
44.00000 138.000
44.02000 165.000
44.04000 164.000
44.06000 136.000
44.08000 165.000
44.10000 146.000
44.12000 134.000
44.14000 146.000
44.16000 155.000
44.18000 154.000
44.20000 149.000
44.22000 153.000
44.24000 158.000
44.26000 122.000
44.28000 133.000
44.30000 144.000
44.32000 153.000
44.34000 143.000
44.36000 136.000
44.38000 132.000
44.40000 132.000
44.42000 154.000
44.44000 141.000
44.46000 127.000
44.48000 130.000
44.50000 137.000
44.52000 121.000
44.54000 148.000
44.56000 156.000
44.58000 137.000
44.60000 122.000
44.62000 120.000
44.64000 146.000
44.66000 121.000
44.68000 138.000
44.70000 143.000
44.72000 137.000
44.74000 148.000
44.76000 129.000
44.78000 131.000
44.80000 141.000
44.82000 124.000
44.84000 142.000
44.86000 125.000
44.88000 145.000
44.90000 133.000
44.92000 149.000
44.94000 145.000
44.96000 126.000
44.98000 121.000
45.00000 117.000
45.02000 148.000
45.04000 149.000
45.06000 137.000
45.08000 127.000
45.10000 132.000
45.12000 147.000
45.14000 132.000
45.16000 149.000
45.18000 119.000
45.20000 132.000
45.22000 118.000
45.24000 141.000
45.26000 128.000
45.28000 135.000
45.30000 141.000
45.32000 136.000
45.34000 152.000
45.36000 140.000
45.38000 143.000
45.40000 139.000
45.42000 134.000
45.44000 147.000
45.46000 133.000
45.48000 146.000
45.50000 160.000
45.52000 126.000
45.54000 149.000
45.56000 153.000
45.58000 170.000
45.60000 184.000
45.62000 178.000
45.64000 160.000
45.66000 162.000
45.68000 169.000
45.70000 154.000
45.72000 121.000
45.74000 161.000
45.76000 144.000
45.78000 139.000
45.80000 137.000
45.82000 147.000
45.84000 120.000
45.86000 110.000
45.88000 125.000
45.90000 117.000
45.92000 126.000
45.94000 125.000
45.96000 108.000
45.98000 128.000
46.00000 129.000
46.02000 121.000
46.04000 120.000
46.06000 138.000
46.08000 120.000
46.10000 133.000
46.12000 106.000
46.14000 133.000
46.16000 115.000
46.18000 114.000
46.20000 119.000
46.22000 123.000
46.24000 118.000
46.26000 120.000
46.28000 111.000
46.30000 111.000
46.32000 125.000
46.34000 110.000
46.36000 136.000
46.38000 107.000
46.40000 111.000
46.42000 114.000
46.44000 120.000
46.46000 119.000
46.48000 105.000
46.50000 129.000
46.52000 112.000
46.54000 96.000
46.56000 114.000
46.58000 131.000
46.60000 123.000
46.62000 124.000
46.64000 108.000
46.66000 122.000
46.68000 146.000
46.70000 120.000
46.72000 120.000
46.74000 126.000
46.76000 115.000
46.78000 114.000
46.80000 122.000
46.82000 116.000
46.84000 114.000
46.86000 117.000
46.88000 121.000
46.90000 109.000
46.92000 126.000
46.94000 101.000
46.96000 116.000
46.98000 138.000
47.00000 118.000
47.02000 120.000
47.04000 117.000
47.06000 109.000
47.08000 126.000
47.10000 124.000
47.12000 92.000
47.14000 115.000
47.16000 129.000
47.18000 120.000
47.20000 102.000
47.22000 109.000
47.24000 113.000
47.26000 102.000
47.28000 106.000
47.30000 110.000
47.32000 109.000
47.34000 111.000
47.36000 114.000
47.38000 122.000
47.40000 101.000
47.42000 91.000
47.44000 98.000
47.46000 112.000
47.48000 96.000
47.50000 101.000
47.52000 93.000
47.54000 144.000
47.56000 110.000
47.58000 102.000
47.60000 108.000
47.62000 116.000
47.64000 108.000
47.66000 86.000
47.68000 118.000
47.70000 131.000
47.72000 118.000
47.74000 117.000
47.76000 123.000
47.78000 128.000
47.80000 113.000
47.82000 118.000
47.84000 132.000
47.86000 129.000
47.88000 118.000
47.90000 128.000
47.92000 157.000
47.94000 132.000
47.96000 143.000
47.98000 165.000
48.00000 117.000
48.02000 153.000
48.04000 133.000
48.06000 132.000
48.08000 121.000
48.10000 147.000
48.12000 112.000
48.14000 116.000
48.16000 119.000
48.18000 129.000
48.20000 106.000
48.22000 93.000
48.24000 115.000
48.26000 121.000
48.28000 94.000
48.30000 127.000
48.32000 110.000
48.34000 89.000
48.36000 128.000
48.38000 124.000
48.40000 106.000
48.42000 110.000
48.44000 111.000
48.46000 94.000
48.48000 122.000
48.50000 119.000
48.52000 128.000
48.54000 107.000
48.56000 124.000
48.58000 113.000
48.60000 93.000
48.62000 121.000
48.64000 95.000
48.66000 114.000
48.68000 116.000
48.70000 106.000
48.72000 101.000
48.74000 125.000
48.76000 121.000
48.78000 98.000
48.80000 107.000
48.82000 119.000
48.84000 95.000
48.86000 124.000
48.88000 105.000
48.90000 110.000
48.92000 103.000
48.94000 112.000
48.96000 113.000
48.98000 109.000
49.00000 121.000
49.02000 105.000
49.04000 73.000
49.06000 102.000
49.08000 105.000
49.10000 123.000
49.12000 104.000
49.14000 110.000
49.16000 137.000
49.18000 113.000
49.20000 132.000
49.22000 112.000
49.24000 109.000
49.26000 135.000
49.28000 128.000
49.30000 114.000
49.32000 124.000
49.34000 103.000
49.36000 118.000
49.38000 121.000
49.40000 133.000
49.42000 93.000
49.44000 104.000
49.46000 120.000
49.48000 109.000
49.50000 126.000
49.52000 114.000
49.54000 115.000
49.56000 123.000
49.58000 103.000
49.60000 104.000
49.62000 131.000
49.64000 126.000
49.66000 111.000
49.68000 96.000
49.70000 134.000
49.72000 125.000
49.74000 117.000
49.76000 130.000
49.78000 109.000
49.80000 133.000
49.82000 137.000
49.84000 128.000
49.86000 130.000
49.88000 134.000
49.90000 133.000
49.92000 141.000
49.94000 138.000
49.96000 158.000
49.98000 137.000
50.00000 147.000
50.02000 163.000
50.04000 173.000
50.06000 188.000
50.08000 205.000
50.10000 256.000
50.12000 283.000
50.14000 298.000
50.16000 371.000
50.18000 373.000
50.20000 406.000
50.22000 439.000
50.24000 468.000
50.26000 416.000
50.28000 414.000
50.30000 418.000
50.32000 395.000
50.34000 356.000
50.36000 339.000
50.38000 347.000
50.40000 357.000
50.42000 292.000
50.44000 247.000
50.46000 226.000
50.48000 212.000
50.50000 216.000
50.52000 191.000
50.54000 156.000
50.56000 165.000
50.58000 152.000
50.60000 148.000
50.62000 158.000
50.64000 125.000
50.66000 126.000
50.68000 136.000
50.70000 138.000
50.72000 133.000
50.74000 109.000
50.76000 139.000
50.78000 117.000
50.80000 130.000
50.82000 116.000
50.84000 113.000
50.86000 118.000
50.88000 103.000
50.90000 122.000
50.92000 130.000
50.94000 106.000
50.96000 124.000
50.98000 132.000
51.00000 117.000
51.02000 134.000
51.04000 119.000
51.06000 111.000
51.08000 116.000
51.10000 116.000
51.12000 101.000
51.14000 104.000
51.16000 111.000
51.18000 125.000
51.20000 102.000
51.22000 130.000
51.24000 110.000
51.26000 122.000
51.28000 133.000
51.30000 104.000
51.32000 109.000
51.34000 109.000
51.36000 123.000
51.38000 139.000
51.40000 109.000
51.42000 119.000
51.44000 124.000
51.46000 111.000
51.48000 124.000
51.50000 115.000
51.52000 102.000
51.54000 116.000
51.56000 97.000
51.58000 104.000
51.60000 106.000
51.62000 114.000
51.64000 108.000
51.66000 130.000
51.68000 114.000
51.70000 108.000
51.72000 113.000
51.74000 107.000
51.76000 122.000
51.78000 125.000
51.80000 108.000
51.82000 121.000
51.84000 120.000
51.86000 125.000
51.88000 112.000
51.90000 121.000
51.92000 118.000
51.94000 118.000
51.96000 114.000
51.98000 119.000
52.00000 129.000
52.02000 128.000
52.04000 124.000
52.06000 147.000
52.08000 133.000
52.10000 107.000
52.12000 122.000
52.14000 136.000
52.16000 158.000
52.18000 181.000
52.20000 177.000
52.22000 152.000
52.24000 209.000
52.26000 169.000
52.28000 190.000
52.30000 237.000
52.32000 266.000
52.34000 276.000
52.36000 302.000
52.38000 347.000
52.40000 328.000
52.42000 356.000
52.44000 385.000
52.46000 337.000
52.48000 359.000
52.50000 344.000
52.52000 335.000
52.54000 344.000
52.56000 306.000
52.58000 273.000
52.60000 267.000
52.62000 254.000
52.64000 215.000
52.66000 204.000
52.68000 213.000
52.70000 192.000
52.72000 174.000
52.74000 151.000
52.76000 167.000
52.78000 133.000
52.80000 162.000
52.82000 135.000
52.84000 122.000
52.86000 150.000
52.88000 113.000
52.90000 133.000
52.92000 123.000
52.94000 132.000
52.96000 105.000
52.98000 96.000
53.00000 126.000
53.02000 121.000
53.04000 144.000
53.06000 102.000
53.08000 104.000
53.10000 123.000
53.12000 125.000
53.14000 120.000
53.16000 105.000
53.18000 105.000
53.20000 92.000
53.22000 80.000
53.24000 121.000
53.26000 116.000
53.28000 110.000
53.30000 98.000
53.32000 97.000
53.34000 103.000
53.36000 108.000
53.38000 88.000
53.40000 97.000
53.42000 115.000
53.44000 95.000
53.46000 79.000
53.48000 82.000
53.50000 94.000
53.52000 93.000
53.54000 96.000
53.56000 107.000
53.58000 83.000
53.60000 92.000
53.62000 106.000
53.64000 107.000
53.66000 104.000
53.68000 114.000
53.70000 110.000
53.72000 96.000
53.74000 99.000
53.76000 100.000
53.78000 83.000
53.80000 90.000
53.82000 105.000
53.84000 77.000
53.86000 103.000
53.88000 101.000
53.90000 99.000
53.92000 105.000
53.94000 88.000
53.96000 118.000
53.98000 98.000
54.00000 100.000
54.02000 102.000
54.04000 96.000
54.06000 116.000
54.08000 94.000
54.10000 100.000
54.12000 119.000
54.14000 80.000
54.16000 91.000
54.18000 96.000
54.20000 88.000
54.22000 89.000
54.24000 101.000
54.26000 101.000
54.28000 128.000
54.30000 104.000
54.32000 111.000
54.34000 103.000
54.36000 98.000
54.38000 112.000
54.40000 140.000
54.42000 112.000
54.44000 112.000
54.46000 128.000
54.48000 126.000
54.50000 130.000
54.52000 170.000
54.54000 171.000
54.56000 172.000
54.58000 168.000
54.60000 164.000
54.62000 168.000
54.64000 157.000
54.66000 164.000
54.68000 170.000
54.70000 148.000
54.72000 142.000
54.74000 159.000
54.76000 134.000
54.78000 153.000
54.80000 132.000
54.82000 111.000
54.84000 106.000
54.86000 116.000
54.88000 110.000
54.90000 101.000
54.92000 108.000
54.94000 116.000
54.96000 94.000
54.98000 100.000
55.00000 103.000
55.02000 120.000
55.04000 101.000
55.06000 112.000
55.08000 104.000
55.10000 94.000
55.12000 122.000
55.14000 111.000
55.16000 93.000
55.18000 104.000
55.20000 104.000
55.22000 86.000
55.24000 91.000
55.26000 91.000
55.28000 106.000
55.30000 86.000
55.32000 109.000
55.34000 93.000
55.36000 93.000
55.38000 101.000
55.40000 92.000
55.42000 84.000
55.44000 87.000
55.46000 80.000
55.48000 99.000
55.50000 85.000
55.52000 97.000
55.54000 87.000
55.56000 101.000
55.58000 95.000
55.60000 94.000
55.62000 72.000
55.64000 83.000
55.66000 90.000
55.68000 82.000
55.70000 92.000
55.72000 104.000
55.74000 87.000
55.76000 96.000
55.78000 80.000
55.80000 92.000
55.82000 93.000
55.84000 84.000
55.86000 90.000
55.88000 90.000
55.90000 96.000
55.92000 82.000
55.94000 88.000
55.96000 98.000
55.98000 100.000
56.00000 86.000
56.02000 95.000
56.04000 111.000
56.06000 86.000
56.08000 92.000
56.10000 107.000
56.12000 102.000
56.14000 96.000
56.16000 106.000
56.18000 91.000
56.20000 90.000
56.22000 86.000
56.24000 98.000
56.26000 105.000
56.28000 102.000
56.30000 88.000
56.32000 100.000
56.34000 99.000
56.36000 82.000
56.38000 109.000
56.40000 116.000
56.42000 90.000
56.44000 102.000
56.46000 100.000
56.48000 105.000
56.50000 90.000
56.52000 79.000
56.54000 110.000
56.56000 105.000
56.58000 101.000
56.60000 87.000
56.62000 96.000
56.64000 96.000
56.66000 109.000
56.68000 100.000
56.70000 92.000
56.72000 94.000
56.74000 98.000
56.76000 99.000
56.78000 102.000
56.80000 83.000
56.82000 77.000
56.84000 95.000
56.86000 86.000
56.88000 89.000
56.90000 71.000
56.92000 96.000
56.94000 93.000
56.96000 99.000
56.98000 109.000
57.00000 80.000
57.02000 93.000
57.04000 100.000
57.06000 88.000
57.08000 85.000
57.10000 88.000
57.12000 85.000
57.14000 92.000
57.16000 89.000
57.18000 90.000
57.20000 87.000
57.22000 89.000
57.24000 91.000
57.26000 100.000
57.28000 84.000
57.30000 90.000
57.32000 94.000
57.34000 92.000
57.36000 89.000
57.38000 112.000
57.40000 85.000
57.42000 104.000
57.44000 91.000
57.46000 97.000
57.48000 88.000
57.50000 104.000
57.52000 97.000
57.54000 99.000
57.56000 92.000
57.58000 88.000
57.60000 84.000
57.62000 88.000
57.64000 88.000
57.66000 103.000
57.68000 86.000
57.70000 98.000
57.72000 78.000
57.74000 110.000
57.76000 89.000
57.78000 105.000
57.80000 90.000
57.82000 112.000
57.84000 103.000
57.86000 103.000
57.88000 89.000
57.90000 93.000
57.92000 102.000
57.94000 105.000
57.96000 124.000
57.98000 93.000
58.00000 93.000
58.02000 106.000
58.04000 100.000
58.06000 90.000
58.08000 90.000
58.10000 107.000
58.12000 109.000
58.14000 85.000
58.16000 85.000
58.18000 99.000
58.20000 111.000
58.22000 91.000
58.24000 107.000
58.26000 94.000
58.28000 87.000
58.30000 93.000
58.32000 110.000
58.34000 102.000
58.36000 110.000
58.38000 120.000
58.40000 93.000
58.42000 111.000
58.44000 111.000
58.46000 114.000
58.48000 134.000
58.50000 123.000
58.52000 106.000
58.54000 135.000
58.56000 142.000
58.58000 142.000
58.60000 167.000
58.62000 193.000
58.64000 196.000
58.66000 223.000
58.68000 205.000
58.70000 190.000
58.72000 218.000
58.74000 221.000
58.76000 196.000
58.78000 167.000
58.80000 183.000
58.82000 196.000
58.84000 173.000
58.86000 161.000
58.88000 163.000
58.90000 161.000
58.92000 133.000
58.94000 129.000
58.96000 124.000
58.98000 131.000
59.00000 99.000
59.02000 105.000
59.04000 133.000
59.06000 115.000
59.08000 119.000
59.10000 96.000
59.12000 103.000
59.14000 111.000
59.16000 107.000
59.18000 107.000
59.20000 108.000
59.22000 84.000
59.24000 98.000
59.26000 94.000
59.28000 91.000
59.30000 121.000
59.32000 110.000
59.34000 108.000
59.36000 94.000
59.38000 111.000
59.40000 118.000
59.42000 103.000
59.44000 107.000
59.46000 101.000
59.48000 112.000
59.50000 106.000
59.52000 87.000
59.54000 93.000
59.56000 107.000
59.58000 95.000
59.60000 89.000
59.62000 100.000
59.64000 103.000
59.66000 98.000
59.68000 91.000
59.70000 93.000
59.72000 108.000
59.74000 99.000
59.76000 97.000
59.78000 99.000
59.80000 95.000
59.82000 108.000
59.84000 101.000
59.86000 94.000
59.88000 111.000
59.90000 105.000
59.92000 111.000
59.94000 95.000
59.96000 120.000
