5.00000 796.000
5.02000 747.000
5.04000 783.000
5.06000 748.000
5.08000 805.000
5.10000 783.000
5.12000 731.000
5.14000 758.000
5.16000 789.000
5.18000 768.000
5.20000 732.000
5.22000 723.000
5.24000 760.000
5.26000 752.000
5.28000 757.000
5.30000 672.000
5.32000 754.000
5.34000 754.000
5.36000 703.000
5.38000 786.000
5.40000 688.000
5.42000 725.000
5.44000 692.000
5.46000 720.000
5.48000 768.000
5.50000 670.000
5.52000 723.000
5.54000 679.000
5.56000 745.000
5.58000 686.000
5.60000 703.000
5.62000 672.000
5.64000 691.000
5.66000 719.000
5.68000 677.000
5.70000 637.000
5.72000 721.000
5.74000 679.000
5.76000 699.000
5.78000 638.000
5.80000 658.000
5.82000 691.000
5.84000 643.000
5.86000 664.000
5.88000 649.000
5.90000 651.000
5.92000 665.000
5.94000 599.000
5.96000 663.000
5.98000 703.000
6.00000 671.000
6.02000 638.000
6.04000 667.000
6.06000 613.000
6.08000 643.000
6.10000 608.000
6.12000 619.000
6.14000 589.000
6.16000 623.000
6.18000 650.000
6.20000 625.000
6.22000 600.000
6.24000 601.000
6.26000 613.000
6.28000 632.000
6.30000 604.000
6.32000 594.000
6.34000 594.000
6.36000 616.000
6.38000 619.000
6.40000 566.000
6.42000 576.000
6.44000 564.000
6.46000 553.000
6.48000 601.000
6.50000 575.000
6.52000 611.000
6.54000 608.000
6.56000 568.000
6.58000 608.000
6.60000 547.000
6.62000 593.000
6.64000 587.000
6.66000 545.000
6.68000 588.000
6.70000 550.000
6.72000 562.000
6.74000 563.000
6.76000 570.000
6.78000 591.000
6.80000 588.000
6.82000 593.000
6.84000 529.000
6.86000 509.000
6.88000 555.000
6.90000 574.000
6.92000 545.000
6.94000 564.000
6.96000 583.000
6.98000 529.000
7.00000 581.000
7.02000 571.000
7.04000 527.000
7.06000 560.000
7.08000 544.000
7.10000 507.000
7.12000 547.000
7.14000 539.000
7.16000 562.000
7.18000 528.000
7.20000 525.000
7.22000 551.000
7.24000 511.000
7.26000 521.000
7.28000 541.000
7.30000 551.000
7.32000 544.000
7.34000 549.000
7.36000 530.000
7.38000 574.000
7.40000 495.000
7.42000 504.000
7.44000 501.000
7.46000 541.000
7.48000 495.000
7.50000 501.000
7.52000 503.000
7.54000 519.000
7.56000 494.000
7.58000 502.000
7.60000 485.000
7.62000 520.000
7.64000 516.000
7.66000 502.000
7.68000 538.000
7.70000 456.000
7.72000 477.000
7.74000 513.000
7.76000 504.000
7.78000 527.000
7.80000 493.000
7.82000 483.000
7.84000 498.000
7.86000 469.000
7.88000 508.000
7.90000 528.000
7.92000 482.000
7.94000 490.000
7.96000 449.000
7.98000 516.000
8.00000 491.000
8.02000 481.000
8.04000 495.000
8.06000 445.000
8.08000 463.000
8.10000 462.000
8.12000 505.000
8.14000 464.000
8.16000 446.000
8.18000 476.000
8.20000 460.000
8.22000 441.000
8.24000 490.000
8.26000 492.000
8.28000 469.000
8.30000 450.000
8.32000 472.000
8.34000 438.000
8.36000 439.000
8.38000 440.000
8.40000 497.000
8.42000 419.000
8.44000 459.000
8.46000 435.000
8.48000 493.000
8.50000 448.000
8.52000 430.000
8.54000 450.000
8.56000 424.000
8.58000 458.000
8.60000 476.000
8.62000 452.000
8.64000 433.000
8.66000 469.000
8.68000 486.000
8.70000 409.000
8.72000 453.000
8.74000 402.000
8.76000 439.000
8.78000 451.000
8.80000 436.000
8.82000 438.000
8.84000 440.000
8.86000 383.000
8.88000 432.000
8.90000 426.000
8.92000 418.000
8.94000 466.000
8.96000 410.000
8.98000 457.000
9.00000 439.000
9.02000 405.000
9.04000 410.000
9.06000 399.000
9.08000 442.000
9.10000 443.000
9.12000 437.000
9.14000 376.000
9.16000 399.000
9.18000 415.000
9.20000 381.000
9.22000 384.000
9.24000 391.000
9.26000 400.000
9.28000 391.000
9.30000 414.000
9.32000 381.000
9.34000 443.000
9.36000 376.000
9.38000 388.000
9.40000 425.000
9.42000 400.000
9.44000 415.000
9.46000 407.000
9.48000 407.000
9.50000 380.000
9.52000 424.000
9.54000 402.000
9.56000 382.000
9.58000 404.000
9.60000 393.000
9.62000 385.000
9.64000 370.000
9.66000 412.000
9.68000 396.000
9.70000 383.000
9.72000 358.000
9.74000 398.000
9.76000 408.000
9.78000 387.000
9.80000 372.000
9.82000 384.000
9.84000 370.000
9.86000 414.000
9.88000 399.000
9.90000 381.000
9.92000 359.000
9.94000 402.000
9.96000 391.000
9.98000 359.000
10.00000 409.000
10.02000 379.000
10.04000 369.000
10.06000 368.000
10.08000 405.000
10.10000 363.000
10.12000 377.000
10.14000 356.000
10.16000 338.000
10.18000 367.000
10.20000 406.000
10.22000 362.000
10.24000 385.000
10.26000 345.000
10.28000 406.000
10.30000 348.000
10.32000 358.000
10.34000 377.000
10.36000 354.000
10.38000 360.000
10.40000 341.000
10.42000 351.000
10.44000 364.000
10.46000 362.000
10.48000 368.000
10.50000 357.000
10.52000 367.000
10.54000 385.000
10.56000 363.000
10.58000 379.000
10.60000 373.000
10.62000 348.000
10.64000 351.000
10.66000 385.000
10.68000 358.000
10.70000 369.000
10.72000 343.000
10.74000 375.000
10.76000 366.000
10.78000 356.000
10.80000 345.000
10.82000 375.000
10.84000 344.000
10.86000 360.000
10.88000 354.000
10.90000 366.000
10.92000 335.000
10.94000 373.000
10.96000 363.000
10.98000 358.000
11.00000 326.000
11.02000 353.000
11.04000 345.000
11.06000 352.000
11.08000 341.000
11.10000 350.000
11.12000 373.000
11.14000 374.000
11.16000 326.000
11.18000 385.000
11.20000 323.000
11.22000 359.000
11.24000 379.000
11.26000 386.000
11.28000 337.000
11.30000 338.000
11.32000 359.000
11.34000 365.000
11.36000 391.000
11.38000 364.000
11.40000 381.000
11.42000 376.000
11.44000 370.000
11.46000 369.000
11.48000 353.000
11.50000 349.000
11.52000 337.000
11.54000 374.000
11.56000 334.000
11.58000 370.000
11.60000 370.000
11.62000 404.000
11.64000 375.000
11.66000 352.000
11.68000 371.000
11.70000 361.000
11.72000 345.000
11.74000 366.000
11.76000 354.000
11.78000 377.000
11.80000 354.000
11.82000 350.000
11.84000 357.000
11.86000 348.000
11.88000 391.000
11.90000 328.000
11.92000 349.000
11.94000 339.000
11.96000 338.000
11.98000 353.000
12.00000 363.000
12.02000 372.000
12.04000 334.000
12.06000 373.000
12.08000 360.000
12.10000 356.000
12.12000 338.000
12.14000 360.000
12.16000 388.000
12.18000 372.000
12.20000 376.000
12.22000 357.000
12.24000 361.000
12.26000 416.000
12.28000 397.000
12.30000 376.000
12.32000 381.000
12.34000 413.000
12.36000 412.000
12.38000 456.000
12.40000 412.000
12.42000 437.000
12.44000 449.000
12.46000 473.000
12.48000 513.000
12.50000 528.000
12.52000 542.000
12.54000 583.000
12.56000 634.000
12.58000 620.000
12.60000 655.000
12.62000 759.000
12.64000 780.000
12.66000 755.000
12.68000 760.000
12.70000 708.000
12.72000 701.000
12.74000 674.000
12.76000 610.000
12.78000 584.000
12.80000 478.000
12.82000 452.000
12.84000 428.000
12.86000 386.000
12.88000 374.000
12.90000 396.000
12.92000 378.000
12.94000 369.000
12.96000 387.000
12.98000 401.000
13.00000 371.000
13.02000 367.000
13.04000 353.000
13.06000 405.000
13.08000 383.000
13.10000 379.000
13.12000 394.000
13.14000 427.000
13.16000 406.000
13.18000 381.000
13.20000 431.000
13.22000 430.000
13.24000 441.000
13.26000 476.000
13.28000 439.000
13.30000 508.000
13.32000 467.000
13.34000 516.000
13.36000 556.000
13.38000 539.000
13.40000 631.000
13.42000 588.000
13.44000 666.000
13.46000 659.000
13.48000 747.000
13.50000 728.000
13.52000 749.000
13.54000 728.000
13.56000 782.000
13.58000 830.000
13.60000 858.000
13.62000 876.000
13.64000 972.000
13.66000 1001.000
13.68000 1103.000
13.70000 1154.000
13.72000 1195.000
13.74000 1316.000
13.76000 1446.000
13.78000 1539.000
13.80000 1558.000
13.82000 1720.000
13.84000 1876.000
13.86000 2079.000
13.88000 2251.000
13.90000 2423.000
13.92000 2718.000
13.94000 3019.000
13.96000 3154.000
13.98000 3625.000
14.00000 4014.000
14.02000 4339.000
14.04000 4796.000
14.06000 5195.000
14.08000 5432.000
14.10000 5451.000
14.12000 5113.000
14.14000 4512.000
14.16000 3907.000
14.18000 3004.000
14.20000 2398.000
14.22000 1941.000
14.24000 1510.000
14.26000 1268.000
14.28000 1021.000
14.30000 910.000
14.32000 781.000
14.34000 638.000
14.36000 559.000
14.38000 483.000
14.40000 505.000
14.42000 425.000
14.44000 382.000
14.46000 364.000
14.48000 374.000
14.50000 327.000
14.52000 330.000
14.54000 341.000
14.56000 343.000
14.58000 324.000
14.60000 304.000
14.62000 305.000
14.64000 317.000
14.66000 329.000
14.68000 305.000
14.70000 259.000
14.72000 302.000
14.74000 266.000
14.76000 298.000
14.78000 298.000
14.80000 306.000
14.82000 301.000
14.84000 302.000
14.86000 304.000
14.88000 267.000
14.90000 296.000
14.92000 277.000
14.94000 262.000
14.96000 304.000
14.98000 252.000
15.00000 260.000
15.02000 260.000
15.04000 283.000
15.06000 268.000
15.08000 263.000
15.10000 284.000
15.12000 266.000
15.14000 270.000
15.16000 283.000
15.18000 288.000
15.20000 267.000
15.22000 299.000
15.24000 255.000
15.26000 277.000
15.28000 258.000
15.30000 273.000
15.32000 271.000
15.34000 287.000
15.36000 247.000
15.38000 275.000
15.40000 256.000
15.42000 266.000
15.44000 256.000
15.46000 262.000
15.48000 266.000
15.50000 245.000
15.52000 289.000
15.54000 283.000
15.56000 281.000
15.58000 245.000
15.60000 275.000
15.62000 252.000
15.64000 282.000
15.66000 275.000
15.68000 272.000
15.70000 239.000
15.72000 247.000
15.74000 250.000
15.76000 256.000
15.78000 257.000
15.80000 245.000
15.82000 228.000
15.84000 227.000
15.86000 272.000
15.88000 248.000
15.90000 248.000
15.92000 233.000
15.94000 218.000
15.96000 230.000
15.98000 250.000
16.00000 250.000
16.02000 246.000
16.04000 274.000
16.06000 229.000
16.08000 255.000
16.10000 243.000
16.12000 234.000
16.14000 221.000
16.16000 262.000
16.18000 271.000
16.20000 256.000
16.22000 275.000
16.24000 256.000
16.26000 248.000
16.28000 213.000
16.30000 241.000
16.32000 218.000
16.34000 248.000
16.36000 248.000
16.38000 256.000
16.40000 216.000
16.42000 224.000
16.44000 228.000
16.46000 277.000
16.48000 225.000
16.50000 248.000
16.52000 249.000
16.54000 243.000
16.56000 254.000
16.58000 238.000
16.60000 268.000
16.62000 245.000
16.64000 239.000
16.66000 218.000
16.68000 250.000
16.70000 279.000
16.72000 233.000
16.74000 216.000
16.76000 236.000
16.78000 213.000
16.80000 259.000
16.82000 247.000
16.84000 260.000
16.86000 258.000
16.88000 220.000
16.90000 241.000
16.92000 228.000
16.94000 227.000
16.96000 223.000
16.98000 242.000
17.00000 245.000
17.02000 237.000
17.04000 239.000
17.06000 244.000
17.08000 216.000
17.10000 245.000
17.12000 235.000
17.14000 239.000
17.16000 236.000
17.18000 221.000
17.20000 228.000
17.22000 214.000
17.24000 236.000
17.26000 243.000
17.28000 233.000
17.30000 212.000
17.32000 206.000
17.34000 228.000
17.36000 240.000
17.38000 255.000
17.40000 251.000
17.42000 229.000
17.44000 239.000
17.46000 241.000
17.48000 243.000
17.50000 257.000
17.52000 240.000
17.54000 231.000
17.56000 230.000
17.58000 237.000
17.60000 232.000
17.62000 235.000
17.64000 210.000
17.66000 248.000
17.68000 220.000
17.70000 216.000
17.72000 235.000
17.74000 225.000
17.76000 235.000
17.78000 251.000
17.80000 208.000
17.82000 220.000
17.84000 207.000
17.86000 229.000
17.88000 252.000
17.90000 215.000
17.92000 239.000
17.94000 229.000
17.96000 229.000
17.98000 228.000
18.00000 222.000
18.02000 236.000
18.04000 215.000
18.06000 228.000
18.08000 237.000
18.10000 242.000
18.12000 225.000
18.14000 233.000
18.16000 240.000
18.18000 212.000
18.20000 216.000
18.22000 218.000
18.24000 237.000
18.26000 233.000
18.28000 233.000
18.30000 271.000
18.32000 235.000
18.34000 242.000
18.36000 249.000
18.38000 245.000
18.40000 255.000
18.42000 239.000
18.44000 228.000
18.46000 264.000
18.48000 234.000
18.50000 242.000
18.52000 255.000
18.54000 226.000
18.56000 232.000
18.58000 237.000
18.60000 231.000
18.62000 248.000
18.64000 219.000
18.66000 223.000
18.68000 265.000
18.70000 264.000
18.72000 243.000
18.74000 224.000
18.76000 226.000
18.78000 244.000
18.80000 251.000
18.82000 212.000
18.84000 242.000
18.86000 200.000
18.88000 228.000
18.90000 220.000
18.92000 250.000
18.94000 243.000
18.96000 253.000
18.98000 248.000
19.00000 263.000
19.02000 231.000
19.04000 259.000
19.06000 245.000
19.08000 248.000
19.10000 248.000
19.12000 226.000
19.14000 279.000
19.16000 242.000
19.18000 252.000
19.20000 280.000
19.22000 257.000
19.24000 244.000
19.26000 243.000
19.28000 208.000
19.30000 246.000
19.32000 229.000
19.34000 264.000
19.36000 234.000
19.38000 252.000
19.40000 262.000
19.42000 237.000
19.44000 291.000
19.46000 265.000
19.48000 299.000
19.50000 304.000
19.52000 311.000
19.54000 296.000
19.56000 298.000
19.58000 316.000
19.60000 338.000
19.62000 317.000
19.64000 342.000
19.66000 388.000
19.68000 398.000
19.70000 380.000
19.72000 456.000
19.74000 441.000
19.76000 527.000
19.78000 568.000
19.80000 597.000
19.82000 635.000
19.84000 669.000
19.86000 729.000
19.88000 887.000
19.90000 1018.000
19.92000 1091.000
19.94000 1188.000
19.96000 1322.000
19.98000 1339.000
20.00000 1228.000
20.02000 1135.000
20.04000 1052.000
20.06000 874.000
20.08000 721.000
20.10000 574.000
20.12000 509.000
20.14000 415.000
20.16000 343.000
20.18000 362.000
20.20000 318.000
20.22000 301.000
20.24000 268.000
20.26000 257.000
20.28000 266.000
20.30000 293.000
20.32000 271.000
20.34000 257.000
20.36000 218.000
20.38000 237.000
20.40000 250.000
20.42000 242.000
20.44000 218.000
20.46000 257.000
20.48000 241.000
20.50000 249.000
20.52000 253.000
20.54000 251.000
20.56000 238.000
20.58000 239.000
20.60000 243.000
20.62000 259.000
20.64000 239.000
20.66000 260.000
20.68000 242.000
20.70000 257.000
20.72000 248.000
20.74000 255.000
20.76000 255.000
20.78000 247.000
20.80000 296.000
20.82000 215.000
20.84000 243.000
20.86000 241.000
20.88000 241.000
20.90000 245.000
20.92000 254.000
20.94000 252.000
20.96000 262.000
20.98000 257.000
21.00000 216.000
21.02000 272.000
21.04000 232.000
21.06000 218.000
21.08000 233.000
21.10000 248.000
21.12000 247.000
21.14000 223.000
21.16000 241.000
21.18000 262.000
21.20000 247.000
21.22000 263.000
21.24000 259.000
21.26000 242.000
21.28000 258.000
21.30000 253.000
21.32000 253.000
21.34000 252.000
21.36000 223.000
21.38000 221.000
21.40000 246.000
21.42000 245.000
21.44000 240.000
21.46000 236.000
21.48000 228.000
21.50000 241.000
21.52000 250.000
21.54000 244.000
21.56000 263.000
21.58000 250.000
21.60000 223.000
21.62000 248.000
21.64000 244.000
21.66000 254.000
21.68000 226.000
21.70000 246.000
21.72000 242.000
21.74000 239.000
21.76000 238.000
21.78000 235.000
21.80000 255.000
21.82000 244.000
21.84000 254.000
21.86000 253.000
21.88000 256.000
21.90000 259.000
21.92000 256.000
21.94000 235.000
21.96000 267.000
21.98000 224.000
22.00000 257.000
22.02000 260.000
22.04000 256.000
22.06000 238.000
22.08000 257.000
22.10000 250.000
22.12000 274.000
22.14000 235.000
22.16000 232.000
22.18000 273.000
22.20000 279.000
22.22000 248.000
22.24000 257.000
22.26000 268.000
22.28000 256.000
22.30000 245.000
22.32000 258.000
22.34000 241.000
22.36000 232.000
22.38000 261.000
22.40000 267.000
22.42000 259.000
22.44000 237.000
22.46000 261.000
22.48000 242.000
22.50000 253.000
22.52000 236.000
22.54000 261.000
22.56000 263.000
22.58000 266.000
22.60000 279.000
22.62000 271.000
22.64000 233.000
22.66000 266.000
22.68000 281.000
22.70000 249.000
22.72000 271.000
22.74000 248.000
22.76000 259.000
22.78000 251.000
22.80000 291.000
22.82000 225.000
22.84000 233.000
22.86000 278.000
22.88000 226.000
22.90000 245.000
22.92000 281.000
22.94000 273.000
22.96000 282.000
22.98000 244.000
23.00000 255.000
23.02000 282.000
23.04000 269.000
23.06000 237.000
23.08000 264.000
23.10000 261.000
23.12000 254.000
23.14000 260.000
23.16000 241.000
23.18000 262.000
23.20000 250.000
23.22000 250.000
23.24000 245.000
23.26000 255.000
23.28000 269.000
23.30000 237.000
23.32000 245.000
23.34000 307.000
23.36000 257.000
23.38000 273.000
23.40000 258.000
23.42000 282.000
23.44000 293.000
23.46000 286.000
23.48000 252.000
23.50000 253.000
23.52000 289.000
23.54000 276.000
23.56000 262.000
23.58000 278.000
23.60000 282.000
23.62000 283.000
23.64000 254.000
23.66000 254.000
23.68000 252.000
23.70000 271.000
23.72000 256.000
23.74000 260.000
23.76000 247.000
23.78000 297.000
23.80000 226.000
23.82000 289.000
23.84000 249.000
23.86000 281.000
23.88000 273.000
23.90000 282.000
23.92000 278.000
23.94000 249.000
23.96000 284.000
23.98000 271.000
24.00000 283.000
24.02000 281.000
24.04000 278.000
24.06000 290.000
24.08000 344.000
24.10000 268.000
24.12000 300.000
24.14000 323.000
24.16000 334.000
24.18000 372.000
24.20000 355.000
24.22000 387.000
24.24000 378.000
24.26000 409.000
24.28000 481.000
24.30000 481.000
24.32000 514.000
24.34000 590.000
24.36000 638.000
24.38000 699.000
24.40000 755.000
24.42000 818.000
24.44000 906.000
24.46000 1096.000
24.48000 1166.000
24.50000 1200.000
24.52000 1312.000
24.54000 1316.000
24.56000 1215.000
24.58000 1102.000
24.60000 913.000
24.62000 789.000
24.64000 689.000
24.66000 613.000
24.68000 536.000
24.70000 443.000
24.72000 422.000
24.74000 391.000
24.76000 307.000
24.78000 325.000
24.80000 309.000
24.82000 286.000
24.84000 308.000
24.86000 318.000
24.88000 282.000
24.90000 274.000
24.92000 267.000
24.94000 274.000
24.96000 260.000
24.98000 279.000
25.00000 270.000
25.02000 286.000
25.04000 283.000
25.06000 266.000
25.08000 270.000
25.10000 266.000
25.12000 270.000
25.14000 257.000
25.16000 272.000
25.18000 261.000
25.20000 257.000
25.22000 275.000
25.24000 260.000
25.26000 273.000
25.28000 282.000
25.30000 283.000
25.32000 294.000
25.34000 267.000
25.36000 278.000
25.38000 249.000
25.40000 259.000
25.42000 274.000
25.44000 287.000
25.46000 327.000
25.48000 270.000
25.50000 297.000
25.52000 286.000
25.54000 301.000
25.56000 290.000
25.58000 276.000
25.60000 271.000
25.62000 265.000
25.64000 264.000
25.66000 285.000
25.68000 271.000
25.70000 270.000
25.72000 277.000
25.74000 264.000
25.76000 272.000
25.78000 310.000
25.80000 256.000
25.82000 258.000
25.84000 290.000
25.86000 277.000
25.88000 258.000
25.90000 250.000
25.92000 259.000
25.94000 280.000
25.96000 273.000
25.98000 288.000
26.00000 274.000
26.02000 274.000
26.04000 281.000
26.06000 261.000
26.08000 277.000
26.10000 265.000
26.12000 249.000
26.14000 235.000
26.16000 261.000
26.18000 262.000
26.20000 278.000
26.22000 256.000
26.24000 263.000
26.26000 244.000
26.28000 291.000
26.30000 287.000
26.32000 254.000
26.34000 278.000
26.36000 267.000
26.38000 280.000
26.40000 270.000
26.42000 285.000
26.44000 288.000
26.46000 247.000
26.48000 251.000
26.50000 263.000
26.52000 250.000
26.54000 271.000
26.56000 284.000
26.58000 261.000
26.60000 277.000
26.62000 285.000
26.64000 282.000
26.66000 289.000
26.68000 281.000
26.70000 281.000
26.72000 286.000
26.74000 270.000
26.76000 274.000
26.78000 264.000
26.80000 273.000
26.82000 268.000
26.84000 264.000
26.86000 277.000
26.88000 301.000
26.90000 270.000
26.92000 306.000
26.94000 278.000
26.96000 276.000
26.98000 268.000
27.00000 284.000
27.02000 258.000
27.04000 296.000
27.06000 324.000
27.08000 308.000
27.10000 285.000
27.12000 313.000
27.14000 321.000
27.16000 337.000
27.18000 316.000
27.20000 343.000
27.22000 322.000
27.24000 292.000
27.26000 320.000
27.28000 296.000
27.30000 286.000
27.32000 291.000
27.34000 309.000
27.36000 305.000
27.38000 313.000
27.40000 325.000
27.42000 308.000
27.44000 278.000
27.46000 308.000
27.48000 330.000
27.50000 286.000
27.52000 306.000
27.54000 354.000
27.56000 301.000
27.58000 332.000
27.60000 297.000
27.62000 299.000
27.64000 327.000
27.66000 308.000
27.68000 341.000
27.70000 348.000
27.72000 328.000
27.74000 333.000
27.76000 312.000
27.78000 327.000
27.80000 359.000
27.82000 372.000
27.84000 331.000
27.86000 391.000
27.88000 361.000
27.90000 378.000
27.92000 380.000
27.94000 384.000
27.96000 443.000
27.98000 473.000
28.00000 492.000
28.02000 555.000
28.04000 566.000
28.06000 624.000
28.08000 686.000
28.10000 715.000
28.12000 818.000
28.14000 951.000
28.16000 1060.000
28.18000 1211.000
28.20000 1370.000
28.22000 1561.000
28.24000 1739.000
28.26000 1975.000
28.28000 2356.000
28.30000 2795.000
28.32000 2996.000
28.34000 3411.000
28.36000 3839.000
28.38000 4116.000
28.40000 4133.000
28.42000 4094.000
28.44000 3727.000
28.46000 3349.000
28.48000 2821.000
28.50000 2442.000
28.52000 1964.000
28.54000 1654.000
28.56000 1397.000
28.58000 1068.000
28.60000 945.000
28.62000 771.000
28.64000 674.000
28.66000 612.000
28.68000 511.000
28.70000 473.000
28.72000 403.000
28.74000 417.000
28.76000 337.000
28.78000 361.000
28.80000 353.000
28.82000 329.000
28.84000 312.000
28.86000 315.000
28.88000 290.000
28.90000 325.000
28.92000 305.000
28.94000 312.000
28.96000 279.000
28.98000 289.000
29.00000 263.000
29.02000 265.000
29.04000 313.000
29.06000 287.000
29.08000 298.000
29.10000 275.000
29.12000 271.000
29.14000 259.000
29.16000 282.000
29.18000 255.000
29.20000 259.000
29.22000 256.000
29.24000 254.000
29.26000 291.000
29.28000 234.000
29.30000 266.000
29.32000 265.000
29.34000 280.000
29.36000 262.000
29.38000 257.000
29.40000 253.000
29.42000 255.000
29.44000 260.000
29.46000 253.000
29.48000 243.000
29.50000 242.000
29.52000 252.000
29.54000 240.000
29.56000 229.000
29.58000 238.000
29.60000 275.000
29.62000 255.000
29.64000 203.000
29.66000 247.000
29.68000 229.000
29.70000 252.000
29.72000 228.000
29.74000 206.000
29.76000 270.000
29.78000 214.000
29.80000 235.000
29.82000 229.000
29.84000 246.000
29.86000 231.000
29.88000 260.000
29.90000 245.000
29.92000 238.000
29.94000 247.000
29.96000 242.000
29.98000 250.000
30.00000 252.000
30.02000 200.000
30.04000 251.000
30.06000 223.000
30.08000 253.000
30.10000 244.000
30.12000 226.000
30.14000 254.000
30.16000 256.000
30.18000 245.000
30.20000 243.000
30.22000 236.000
30.24000 262.000
30.26000 237.000
30.28000 284.000
30.30000 237.000
30.32000 249.000
30.34000 249.000
30.36000 268.000
30.38000 271.000
30.40000 276.000
30.42000 270.000
30.44000 273.000
30.46000 289.000
30.48000 306.000
30.50000 265.000
30.52000 253.000
30.54000 265.000
30.56000 284.000
30.58000 249.000
30.60000 258.000
30.62000 241.000
30.64000 258.000
30.66000 280.000
30.68000 261.000
30.70000 254.000
30.72000 260.000
30.74000 257.000
30.76000 242.000
30.78000 251.000
30.80000 255.000
30.82000 271.000
30.84000 239.000
30.86000 249.000
30.88000 245.000
30.90000 261.000
30.92000 269.000
30.94000 269.000
30.96000 248.000
30.98000 247.000
31.00000 262.000
31.02000 257.000
31.04000 238.000
31.06000 257.000
31.08000 269.000
31.10000 268.000
31.12000 248.000
31.14000 246.000
31.16000 294.000
31.18000 276.000
31.20000 262.000
31.22000 289.000
31.24000 287.000
31.26000 290.000
31.28000 297.000
31.30000 291.000
31.32000 299.000
31.34000 311.000
31.36000 319.000
31.38000 336.000
31.40000 336.000
31.42000 352.000
31.44000 379.000
31.46000 407.000
31.48000 432.000
31.50000 513.000
31.52000 538.000
31.54000 603.000
31.56000 642.000
31.58000 721.000
31.60000 881.000
31.62000 959.000
31.64000 1179.000
31.66000 1348.000
31.68000 1582.000
31.70000 1835.000
31.72000 2087.000
31.74000 2426.000
31.76000 2829.000
31.78000 3233.000
31.80000 3568.000
31.82000 3647.000
31.84000 3598.000
31.86000 3314.000
31.88000 3075.000
31.90000 2713.000
31.92000 2340.000
31.94000 1949.000
31.96000 1533.000
31.98000 1239.000
32.00000 1009.000
32.02000 828.000
32.04000 674.000
32.06000 567.000
32.08000 502.000
32.10000 431.000
32.12000 400.000
32.14000 348.000
32.16000 309.000
32.18000 300.000
32.20000 307.000
32.22000 258.000
32.24000 265.000
32.26000 254.000
32.28000 261.000
32.30000 261.000
32.32000 250.000
32.34000 256.000
32.36000 227.000
32.38000 246.000
32.40000 232.000
32.42000 212.000
32.44000 233.000
32.46000 211.000
32.48000 220.000
32.50000 226.000
32.52000 201.000
32.54000 223.000
32.56000 243.000
32.58000 232.000
32.60000 211.000
32.62000 214.000
32.64000 221.000
32.66000 199.000
32.68000 203.000
32.70000 232.000
32.72000 198.000
32.74000 209.000
32.76000 180.000
32.78000 229.000
32.80000 196.000
32.82000 207.000
32.84000 212.000
32.86000 184.000
32.88000 187.000
32.90000 190.000
32.92000 188.000
32.94000 188.000
32.96000 190.000
32.98000 175.000
33.00000 227.000
33.02000 195.000
33.04000 201.000
33.06000 185.000
33.08000 176.000
33.10000 216.000
33.12000 190.000
33.14000 199.000
33.16000 195.000
33.18000 231.000
33.20000 188.000
33.22000 189.000
33.24000 236.000
33.26000 202.000
33.28000 192.000
33.30000 198.000
33.32000 196.000
33.34000 218.000
33.36000 210.000
33.38000 212.000
33.40000 194.000
33.42000 175.000
33.44000 182.000
33.46000 211.000
33.48000 182.000
33.50000 197.000
33.52000 170.000
33.54000 178.000
33.56000 193.000
33.58000 167.000
33.60000 185.000
33.62000 178.000
33.64000 174.000
33.66000 174.000
33.68000 186.000
33.70000 190.000
33.72000 189.000
33.74000 197.000
33.76000 189.000
33.78000 169.000
33.80000 182.000
33.82000 183.000
33.84000 188.000
33.86000 161.000
33.88000 178.000
33.90000 172.000
33.92000 176.000
33.94000 197.000
33.96000 212.000
33.98000 197.000
34.00000 168.000
34.02000 189.000
34.04000 178.000
34.06000 172.000
34.08000 196.000
34.10000 181.000
34.12000 191.000
34.14000 188.000
34.16000 198.000
34.18000 166.000
34.20000 181.000
34.22000 194.000
34.24000 187.000
34.26000 185.000
34.28000 162.000
34.30000 190.000
34.32000 179.000
34.34000 187.000
34.36000 180.000
34.38000 183.000
34.40000 170.000
34.42000 201.000
34.44000 181.000
34.46000 188.000
34.48000 186.000
34.50000 206.000
34.52000 183.000
34.54000 167.000
34.56000 197.000
34.58000 216.000
34.60000 163.000
34.62000 187.000
34.64000 193.000
34.66000 229.000
34.68000 274.000
34.70000 230.000
34.72000 256.000
34.74000 271.000
34.76000 296.000
34.78000 302.000
34.80000 336.000
34.82000 376.000
34.84000 410.000
34.86000 460.000
34.88000 524.000
34.90000 556.000
34.92000 647.000
34.94000 709.000
34.96000 676.000
34.98000 679.000
35.00000 655.000
35.02000 612.000
35.04000 529.000
35.06000 480.000
35.08000 436.000
35.10000 387.000
35.12000 334.000
35.14000 301.000
35.16000 260.000
35.18000 241.000
35.20000 239.000
35.22000 197.000
35.24000 195.000
35.26000 212.000
35.28000 169.000
35.30000 182.000
35.32000 176.000
35.34000 187.000
35.36000 187.000
35.38000 173.000
35.40000 179.000
35.42000 162.000
35.44000 175.000
35.46000 147.000
35.48000 151.000
35.50000 166.000
35.52000 158.000
35.54000 176.000
35.56000 170.000
35.58000 175.000
35.60000 161.000
35.62000 168.000
35.64000 179.000
35.66000 177.000
35.68000 164.000
35.70000 160.000
35.72000 174.000
35.74000 160.000
35.76000 165.000
35.78000 152.000
35.80000 168.000
35.82000 166.000
35.84000 156.000
35.86000 162.000
35.88000 164.000
35.90000 160.000
35.92000 156.000
35.94000 172.000
35.96000 146.000
35.98000 164.000
36.00000 174.000
36.02000 155.000
36.04000 159.000
36.06000 175.000
36.08000 150.000
36.10000 183.000
36.12000 165.000
36.14000 167.000
36.16000 163.000
36.18000 159.000
36.20000 142.000
36.22000 145.000
36.24000 174.000
36.26000 163.000
36.28000 169.000
36.30000 176.000
36.32000 164.000
36.34000 145.000
36.36000 151.000
36.38000 166.000
36.40000 151.000
36.42000 204.000
36.44000 170.000
36.46000 169.000
36.48000 170.000
36.50000 169.000
36.52000 168.000
36.54000 150.000
36.56000 147.000
36.58000 154.000
36.60000 154.000
36.62000 142.000
36.64000 182.000
36.66000 156.000
36.68000 162.000
36.70000 168.000
36.72000 155.000
36.74000 168.000
36.76000 169.000
36.78000 161.000
36.80000 174.000
36.82000 150.000
36.84000 151.000
36.86000 172.000
36.88000 150.000
36.90000 173.000
36.92000 166.000
36.94000 156.000
36.96000 130.000
36.98000 162.000
37.00000 151.000
37.02000 151.000
37.04000 153.000
37.06000 129.000
37.08000 149.000
37.10000 152.000
37.12000 142.000
37.14000 142.000
37.16000 148.000
37.18000 147.000
37.20000 150.000
37.22000 136.000
37.24000 142.000
37.26000 165.000
37.28000 162.000
37.30000 152.000
37.32000 167.000
37.34000 145.000
37.36000 160.000
37.38000 167.000
37.40000 133.000
37.42000 164.000
37.44000 162.000
37.46000 175.000
37.48000 135.000
37.50000 137.000
37.52000 150.000
37.54000 140.000
37.56000 166.000
37.58000 159.000
37.60000 146.000
37.62000 153.000
37.64000 167.000
37.66000 158.000
37.68000 166.000
37.70000 163.000
37.72000 150.000
37.74000 155.000
37.76000 172.000
37.78000 149.000
37.80000 153.000
37.82000 156.000
37.84000 146.000
37.86000 163.000
37.88000 151.000
37.90000 153.000
37.92000 156.000
37.94000 140.000
37.96000 145.000
37.98000 160.000
38.00000 142.000
38.02000 146.000
38.04000 159.000
38.06000 152.000
38.08000 138.000
38.10000 157.000
38.12000 155.000
38.14000 141.000
38.16000 166.000
38.18000 136.000
38.20000 165.000
38.22000 150.000
38.24000 181.000
38.26000 134.000
38.28000 154.000
38.30000 154.000
38.32000 145.000
38.34000 160.000
38.36000 159.000
38.38000 157.000
38.40000 146.000
38.42000 143.000
38.44000 144.000
38.46000 128.000
38.48000 181.000
38.50000 172.000
38.52000 182.000
38.54000 175.000
38.56000 189.000
38.58000 188.000
38.60000 180.000
38.62000 188.000
38.64000 198.000
38.66000 149.000
38.68000 194.000
38.70000 202.000
38.72000 195.000
38.74000 182.000
38.76000 207.000
38.78000 204.000
38.80000 171.000
38.82000 198.000
38.84000 176.000
38.86000 177.000
38.88000 166.000
38.90000 177.000
38.92000 172.000
38.94000 176.000
38.96000 172.000
38.98000 157.000
39.00000 148.000
39.02000 169.000
39.04000 139.000
39.06000 159.000
39.08000 172.000
39.10000 165.000
39.12000 168.000
39.14000 156.000
39.16000 152.000
39.18000 161.000
39.20000 176.000
39.22000 172.000
39.24000 164.000
39.26000 137.000
39.28000 143.000
39.30000 153.000
39.32000 140.000
39.34000 153.000
39.36000 197.000
39.38000 171.000
39.40000 170.000
39.42000 160.000
39.44000 171.000
39.46000 189.000
39.48000 170.000
39.50000 161.000
39.52000 165.000
39.54000 193.000
39.56000 172.000
39.58000 178.000
39.60000 166.000
39.62000 173.000
39.64000 162.000
39.66000 169.000
39.68000 173.000
39.70000 156.000
39.72000 144.000
39.74000 147.000
39.76000 193.000
39.78000 167.000
39.80000 164.000
39.82000 179.000
39.84000 170.000
39.86000 173.000
39.88000 194.000
39.90000 150.000
39.92000 191.000
39.94000 186.000
39.96000 143.000
39.98000 185.000
40.00000 180.000
40.02000 195.000
40.04000 177.000
40.06000 181.000
40.08000 209.000
40.10000 166.000
40.12000 195.000
40.14000 177.000
40.16000 197.000
40.18000 213.000
40.20000 209.000
40.22000 219.000
40.24000 250.000
40.26000 254.000
40.28000 285.000
40.30000 318.000
40.32000 330.000
40.34000 401.000
40.36000 470.000
40.38000 474.000
40.40000 549.000
40.42000 663.000
40.44000 724.000
40.46000 916.000
40.48000 1140.000
40.50000 1358.000
40.52000 1474.000
40.54000 1812.000
40.56000 1860.000
40.58000 2032.000
40.60000 1938.000
40.62000 1746.000
40.64000 1567.000
40.66000 1500.000
40.68000 1415.000
40.70000 1356.000
40.72000 1040.000
40.74000 926.000
40.76000 733.000
40.78000 577.000
40.80000 525.000
40.82000 398.000
40.84000 369.000
40.86000 293.000
40.88000 299.000
40.90000 265.000
40.92000 231.000
40.94000 256.000
40.96000 220.000
40.98000 211.000
41.00000 198.000
41.02000 213.000
41.04000 207.000
41.06000 202.000
41.08000 188.000
41.10000 189.000
41.12000 197.000
41.14000 208.000
41.16000 200.000
41.18000 175.000
41.20000 201.000
41.22000 186.000
41.24000 197.000
41.26000 224.000
41.28000 196.000
41.30000 186.000
41.32000 194.000
41.34000 148.000
41.36000 177.000
41.38000 164.000
41.40000 160.000
41.42000 208.000
41.44000 188.000
41.46000 169.000
41.48000 181.000
41.50000 169.000
41.52000 160.000
41.54000 175.000
41.56000 187.000
41.58000 183.000
41.60000 201.000
41.62000 164.000
41.64000 167.000
41.66000 178.000
41.68000 176.000
41.70000 144.000
41.72000 155.000
41.74000 178.000
41.76000 153.000
41.78000 189.000
41.80000 159.000
41.82000 176.000
41.84000 179.000
41.86000 168.000
41.88000 191.000
41.90000 203.000
41.92000 178.000
41.94000 188.000
41.96000 159.000
41.98000 162.000
42.00000 170.000
42.02000 160.000
42.04000 166.000
42.06000 175.000
42.08000 182.000
42.10000 168.000
42.12000 199.000
42.14000 184.000
42.16000 171.000
42.18000 189.000
42.20000 176.000
42.22000 163.000
42.24000 158.000
42.26000 188.000
42.28000 181.000
42.30000 161.000
42.32000 178.000
42.34000 187.000
42.36000 185.000
42.38000 182.000
42.40000 185.000
42.42000 165.000
42.44000 171.000
42.46000 172.000
42.48000 181.000
42.50000 168.000
42.52000 187.000
42.54000 175.000
42.56000 170.000
42.58000 197.000
42.60000 208.000
42.62000 150.000
42.64000 179.000
42.66000 185.000
42.68000 159.000
42.70000 197.000
42.72000 202.000
42.74000 189.000
42.76000 207.000
42.78000 208.000
42.80000 244.000
42.82000 247.000
42.84000 256.000
42.86000 249.000
42.88000 262.000
42.90000 264.000
42.92000 333.000
42.94000 384.000
42.96000 435.000
42.98000 475.000
43.00000 591.000
43.02000 606.000
43.04000 755.000
43.06000 905.000
43.08000 1044.000
43.10000 1185.000
43.12000 1387.000
43.14000 1410.000
43.16000 1504.000
43.18000 1445.000
43.20000 1413.000
43.22000 1324.000
43.24000 1198.000
43.26000 1107.000
43.28000 998.000
43.30000 841.000
43.32000 717.000
43.34000 611.000
43.36000 515.000
43.38000 443.000
43.40000 360.000
43.42000 296.000
43.44000 289.000
43.46000 255.000
43.48000 240.000
43.50000 221.000
43.52000 222.000
43.54000 224.000
43.56000 190.000
43.58000 199.000
43.60000 186.000
43.62000 180.000
43.64000 184.000
43.66000 178.000
43.68000 161.000
43.70000 170.000
43.72000 163.000
43.74000 155.000
43.76000 136.000
43.78000 166.000
43.80000 174.000
43.82000 173.000
43.84000 171.000
43.86000 159.000
43.88000 167.000
43.90000 175.000
43.92000 162.000
43.94000 148.000
43.96000 159.000
43.98000 139.000
44.00000 133.000
44.02000 132.000
44.04000 147.000
44.06000 159.000
44.08000 158.000
44.10000 158.000
44.12000 160.000
44.14000 138.000
44.16000 152.000
44.18000 142.000
44.20000 142.000
44.22000 144.000
44.24000 144.000
44.26000 150.000
44.28000 139.000
44.30000 123.000
44.32000 141.000
44.34000 157.000
44.36000 147.000
44.38000 152.000
44.40000 145.000
44.42000 167.000
44.44000 137.000
44.46000 128.000
44.48000 135.000
44.50000 151.000
44.52000 146.000
44.54000 114.000
44.56000 140.000
44.58000 151.000
44.60000 134.000
44.62000 112.000
44.64000 145.000
44.66000 120.000
44.68000 115.000
44.70000 138.000
44.72000 122.000
44.74000 117.000
44.76000 123.000
44.78000 150.000
44.80000 140.000
44.82000 156.000
44.84000 149.000
44.86000 122.000
44.88000 125.000
44.90000 122.000
44.92000 118.000
44.94000 135.000
44.96000 137.000
44.98000 138.000
45.00000 143.000
45.02000 150.000
45.04000 144.000
45.06000 135.000
45.08000 158.000
45.10000 144.000
45.12000 129.000
45.14000 137.000
45.16000 131.000
45.18000 118.000
45.20000 137.000
45.22000 127.000
45.24000 129.000
45.26000 112.000
45.28000 132.000
45.30000 137.000
45.32000 143.000
45.34000 148.000
45.36000 144.000
45.38000 147.000
45.40000 176.000
45.42000 148.000
45.44000 186.000
45.46000 152.000
45.48000 150.000
45.50000 177.000
45.52000 175.000
45.54000 167.000
45.56000 168.000
45.58000 201.000
45.60000 183.000
45.62000 181.000
45.64000 178.000
45.66000 187.000
45.68000 184.000
45.70000 190.000
45.72000 206.000
45.74000 153.000
45.76000 159.000
45.78000 152.000
45.80000 171.000
45.82000 145.000
45.84000 153.000
45.86000 142.000
45.88000 146.000
45.90000 140.000
45.92000 145.000
45.94000 133.000
45.96000 118.000
45.98000 138.000
46.00000 140.000
46.02000 135.000
46.04000 116.000
46.06000 145.000
46.08000 122.000
46.10000 123.000
46.12000 125.000
46.14000 127.000
46.16000 131.000
46.18000 123.000
46.20000 118.000
46.22000 132.000
46.24000 114.000
46.26000 117.000
46.28000 109.000
46.30000 133.000
46.32000 138.000
46.34000 130.000
46.36000 118.000
46.38000 113.000
46.40000 119.000
46.42000 117.000
46.44000 116.000
46.46000 134.000
46.48000 106.000
46.50000 148.000
46.52000 123.000
46.54000 111.000
46.56000 126.000
46.58000 117.000
46.60000 122.000
46.62000 116.000
46.64000 117.000
46.66000 123.000
46.68000 130.000
46.70000 107.000
46.72000 142.000
46.74000 128.000
46.76000 119.000
46.78000 126.000
46.80000 137.000
46.82000 132.000
46.84000 119.000
46.86000 132.000
46.88000 136.000
46.90000 115.000
46.92000 128.000
46.94000 105.000
46.96000 140.000
46.98000 129.000
47.00000 123.000
47.02000 125.000
47.04000 125.000
47.06000 120.000
47.08000 121.000
47.10000 146.000
47.12000 112.000
47.14000 104.000
47.16000 133.000
47.18000 122.000
47.20000 144.000
47.22000 107.000
47.24000 124.000
47.26000 119.000
47.28000 114.000
47.30000 127.000
47.32000 113.000
47.34000 109.000
47.36000 115.000
47.38000 109.000
47.40000 114.000
47.42000 120.000
47.44000 115.000
47.46000 128.000
47.48000 124.000
47.50000 120.000
47.52000 128.000
47.54000 112.000
47.56000 133.000
47.58000 114.000
47.60000 110.000
47.62000 119.000
47.64000 130.000
47.66000 106.000
47.68000 112.000
47.70000 132.000
47.72000 124.000
47.74000 123.000
47.76000 116.000
47.78000 133.000
47.80000 101.000
47.82000 118.000
47.84000 118.000
47.86000 153.000
47.88000 137.000
47.90000 144.000
47.92000 166.000
47.94000 157.000
47.96000 146.000
47.98000 166.000
48.00000 182.000
48.02000 162.000
48.04000 141.000
48.06000 149.000
48.08000 147.000
48.10000 134.000
48.12000 130.000
48.14000 124.000
48.16000 113.000
48.18000 136.000
48.20000 121.000
48.22000 130.000
48.24000 132.000
48.26000 118.000
48.28000 105.000
48.30000 132.000
48.32000 130.000
48.34000 121.000
48.36000 117.000
48.38000 114.000
48.40000 125.000
48.42000 119.000
48.44000 135.000
48.46000 126.000
48.48000 115.000
48.50000 114.000
48.52000 123.000
48.54000 117.000
48.56000 125.000
48.58000 119.000
48.60000 123.000
48.62000 112.000
48.64000 114.000
48.66000 130.000
48.68000 100.000
48.70000 98.000
48.72000 130.000
48.74000 116.000
48.76000 120.000
48.78000 127.000
48.80000 126.000
48.82000 108.000
48.84000 122.000
48.86000 122.000
48.88000 124.000
48.90000 108.000
48.92000 142.000
48.94000 140.000
48.96000 115.000
48.98000 112.000
49.00000 108.000
49.02000 109.000
49.04000 131.000
49.06000 123.000
49.08000 114.000
49.10000 118.000
49.12000 121.000
49.14000 115.000
49.16000 127.000
49.18000 119.000
49.20000 130.000
49.22000 129.000
49.24000 116.000
49.26000 124.000
49.28000 133.000
49.30000 94.000
49.32000 134.000
49.34000 109.000
49.36000 120.000
49.38000 126.000
49.40000 107.000
49.42000 122.000
49.44000 117.000
49.46000 121.000
49.48000 116.000
49.50000 108.000
49.52000 115.000
49.54000 122.000
49.56000 103.000
49.58000 124.000
49.60000 119.000
49.62000 93.000
49.64000 109.000
49.66000 137.000
49.68000 129.000
49.70000 121.000
49.72000 122.000
49.74000 128.000
49.76000 134.000
49.78000 125.000
49.80000 120.000
49.82000 113.000
49.84000 133.000
49.86000 128.000
49.88000 111.000
49.90000 137.000
49.92000 137.000
49.94000 130.000
49.96000 156.000
49.98000 138.000
50.00000 162.000
50.02000 171.000
50.04000 195.000
50.06000 192.000
50.08000 184.000
50.10000 248.000
50.12000 237.000
50.14000 297.000
50.16000 370.000
50.18000 382.000
50.20000 370.000
50.22000 484.000
50.24000 516.000
50.26000 523.000
50.28000 505.000
50.30000 482.000
50.32000 449.000
50.34000 382.000
50.36000 395.000
50.38000 379.000
50.40000 349.000
50.42000 343.000
50.44000 294.000
50.46000 255.000
50.48000 244.000
50.50000 207.000
50.52000 181.000
50.54000 176.000
50.56000 161.000
50.58000 148.000
50.60000 144.000
50.62000 113.000
50.64000 123.000
50.66000 143.000
50.68000 110.000
50.70000 119.000
50.72000 112.000
50.74000 133.000
50.76000 119.000
50.78000 131.000
50.80000 123.000
50.82000 130.000
50.84000 122.000
50.86000 124.000
50.88000 122.000
50.90000 112.000
50.92000 99.000
50.94000 118.000
50.96000 108.000
50.98000 126.000
51.00000 138.000
51.02000 111.000
51.04000 126.000
51.06000 118.000
51.08000 126.000
51.10000 109.000
51.12000 120.000
51.14000 132.000
51.16000 97.000
51.18000 121.000
51.20000 106.000
51.22000 100.000
51.24000 113.000
51.26000 108.000
51.28000 104.000
51.30000 122.000
51.32000 105.000
51.34000 119.000
51.36000 107.000
51.38000 111.000
51.40000 111.000
51.42000 97.000
51.44000 123.000
51.46000 110.000
51.48000 109.000
51.50000 110.000
51.52000 120.000
51.54000 122.000
51.56000 104.000
51.58000 120.000
51.60000 124.000
51.62000 102.000
51.64000 134.000
51.66000 106.000
51.68000 117.000
51.70000 119.000
51.72000 111.000
51.74000 128.000
51.76000 124.000
51.78000 100.000
51.80000 110.000
51.82000 112.000
51.84000 113.000
51.86000 109.000
51.88000 125.000
51.90000 127.000
51.92000 124.000
51.94000 121.000
51.96000 119.000
51.98000 108.000
52.00000 133.000
52.02000 136.000
52.04000 110.000
52.06000 122.000
52.08000 118.000
52.10000 127.000
52.12000 155.000
52.14000 100.000
52.16000 134.000
52.18000 124.000
52.20000 144.000
52.22000 149.000
52.24000 159.000
52.26000 162.000
52.28000 163.000
52.30000 195.000
52.32000 234.000
52.34000 222.000
52.36000 257.000
52.38000 285.000
52.40000 330.000
52.42000 358.000
52.44000 395.000
52.46000 348.000
52.48000 377.000
52.50000 356.000
52.52000 328.000
52.54000 321.000
52.56000 306.000
52.58000 300.000
52.60000 277.000
52.62000 275.000
52.64000 227.000
52.66000 199.000
52.68000 178.000
52.70000 176.000
52.72000 184.000
52.74000 157.000
52.76000 148.000
52.78000 128.000
52.80000 149.000
52.82000 123.000
52.84000 102.000
52.86000 127.000
52.88000 102.000
52.90000 112.000
52.92000 111.000
52.94000 114.000
52.96000 110.000
52.98000 114.000
53.00000 115.000
53.02000 107.000
53.04000 106.000
53.06000 98.000
53.08000 112.000
53.10000 97.000
53.12000 113.000
53.14000 104.000
53.16000 97.000
53.18000 129.000
53.20000 95.000
53.22000 103.000
53.24000 92.000
53.26000 102.000
53.28000 106.000
53.30000 113.000
53.32000 85.000
53.34000 96.000
53.36000 112.000
53.38000 114.000
53.40000 95.000
53.42000 127.000
53.44000 103.000
53.46000 109.000
53.48000 97.000
53.50000 113.000
53.52000 113.000
53.54000 111.000
53.56000 102.000
53.58000 84.000
53.60000 86.000
53.62000 104.000
53.64000 87.000
53.66000 108.000
53.68000 101.000
53.70000 112.000
53.72000 86.000
53.74000 110.000
53.76000 99.000
53.78000 92.000
53.80000 98.000
53.82000 95.000
53.84000 81.000
53.86000 98.000
53.88000 102.000
53.90000 113.000
53.92000 98.000
53.94000 96.000
53.96000 100.000
53.98000 109.000
54.00000 110.000
54.02000 105.000
54.04000 111.000
54.06000 87.000
54.08000 95.000
54.10000 99.000
54.12000 89.000
54.14000 87.000
54.16000 108.000
54.18000 113.000
54.20000 102.000
54.22000 90.000
54.24000 101.000
54.26000 112.000
54.28000 110.000
54.30000 91.000
54.32000 101.000
54.34000 108.000
54.36000 104.000
54.38000 91.000
54.40000 116.000
54.42000 112.000
54.44000 122.000
54.46000 167.000
54.48000 116.000
54.50000 162.000
54.52000 162.000
54.54000 174.000
54.56000 222.000
54.58000 192.000
54.60000 236.000
54.62000 224.000
54.64000 167.000
54.66000 174.000
54.68000 179.000
54.70000 187.000
54.72000 156.000
54.74000 141.000
54.76000 151.000
54.78000 151.000
54.80000 154.000
54.82000 142.000
54.84000 135.000
54.86000 131.000
54.88000 99.000
54.90000 115.000
54.92000 107.000
54.94000 129.000
54.96000 87.000
54.98000 107.000
55.00000 110.000
55.02000 92.000
55.04000 108.000
55.06000 120.000
55.08000 94.000
55.10000 94.000
55.12000 107.000
55.14000 81.000
55.16000 115.000
55.18000 106.000
55.20000 98.000
55.22000 75.000
55.24000 96.000
55.26000 86.000
55.28000 94.000
55.30000 92.000
55.32000 83.000
55.34000 87.000
55.36000 96.000
55.38000 95.000
55.40000 116.000
55.42000 82.000
55.44000 92.000
55.46000 90.000
55.48000 89.000
55.50000 81.000
55.52000 105.000
55.54000 104.000
55.56000 100.000
55.58000 101.000
55.60000 121.000
55.62000 80.000
55.64000 80.000
55.66000 116.000
55.68000 105.000
55.70000 90.000
55.72000 105.000
55.74000 84.000
55.76000 94.000
55.78000 98.000
55.80000 92.000
55.82000 93.000
55.84000 90.000
55.86000 110.000
55.88000 85.000
55.90000 82.000
55.92000 86.000
55.94000 116.000
55.96000 101.000
55.98000 86.000
56.00000 101.000
56.02000 92.000
56.04000 99.000
56.06000 93.000
56.08000 118.000
56.10000 85.000
56.12000 93.000
56.14000 96.000
56.16000 97.000
56.18000 99.000
56.20000 102.000
56.22000 88.000
56.24000 86.000
56.26000 101.000
56.28000 91.000
56.30000 103.000
56.32000 91.000
56.34000 81.000
56.36000 88.000
56.38000 96.000
56.40000 115.000
56.42000 97.000
56.44000 123.000
56.46000 92.000
56.48000 98.000
56.50000 84.000
56.52000 95.000
56.54000 84.000
56.56000 90.000
56.58000 116.000
56.60000 97.000
56.62000 94.000
56.64000 104.000
56.66000 103.000
56.68000 98.000
56.70000 108.000
56.72000 100.000
56.74000 79.000
56.76000 81.000
56.78000 79.000
56.80000 103.000
56.82000 77.000
56.84000 98.000
56.86000 95.000
56.88000 70.000
56.90000 90.000
56.92000 88.000
56.94000 84.000
56.96000 76.000
56.98000 84.000
57.00000 97.000
57.02000 89.000
57.04000 94.000
57.06000 88.000
57.08000 80.000
57.10000 97.000
57.12000 89.000
57.14000 109.000
57.16000 86.000
57.18000 85.000
57.20000 98.000
57.22000 81.000
57.24000 88.000
57.26000 74.000
57.28000 101.000
57.30000 77.000
57.32000 85.000
57.34000 86.000
57.36000 95.000
57.38000 94.000
57.40000 70.000
57.42000 97.000
57.44000 93.000
57.46000 86.000
57.48000 87.000
57.50000 92.000
57.52000 95.000
57.54000 86.000
57.56000 90.000
57.58000 95.000
57.60000 98.000
57.62000 79.000
57.64000 91.000
57.66000 99.000
57.68000 85.000
57.70000 85.000
57.72000 90.000
57.74000 103.000
57.76000 94.000
57.78000 99.000
57.80000 91.000
57.82000 89.000
57.84000 106.000
57.86000 95.000
57.88000 87.000
57.90000 99.000
57.92000 111.000
57.94000 94.000
57.96000 102.000
57.98000 117.000
58.00000 90.000
58.02000 99.000
58.04000 90.000
58.06000 103.000
58.08000 115.000
58.10000 97.000
58.12000 97.000
58.14000 88.000
58.16000 97.000
58.18000 107.000
58.20000 105.000
58.22000 109.000
58.24000 96.000
58.26000 84.000
58.28000 105.000
58.30000 87.000
58.32000 83.000
58.34000 96.000
58.36000 113.000
58.38000 109.000
58.40000 97.000
58.42000 111.000
58.44000 107.000
58.46000 113.000
58.48000 122.000
58.50000 122.000
58.52000 116.000
58.54000 126.000
58.56000 109.000
58.58000 132.000
58.60000 152.000
58.62000 156.000
58.64000 163.000
58.66000 175.000
58.68000 183.000
58.70000 207.000
58.72000 223.000
58.74000 234.000
58.76000 219.000
58.78000 203.000
58.80000 189.000
58.82000 193.000
58.84000 199.000
58.86000 198.000
58.88000 165.000
58.90000 167.000
58.92000 167.000
58.94000 141.000
58.96000 143.000
58.98000 135.000
59.00000 116.000
59.02000 116.000
59.04000 116.000
59.06000 123.000
59.08000 98.000
59.10000 92.000
59.12000 108.000
59.14000 119.000
59.16000 109.000
59.18000 90.000
59.20000 108.000
59.22000 102.000
59.24000 90.000
59.26000 109.000
59.28000 94.000
59.30000 89.000
59.32000 99.000
59.34000 92.000
59.36000 92.000
59.38000 89.000
59.40000 105.000
59.42000 96.000
59.44000 104.000
59.46000 98.000
59.48000 114.000
59.50000 114.000
59.52000 118.000
59.54000 114.000
59.56000 81.000
59.58000 103.000
59.60000 96.000
59.62000 96.000
59.64000 82.000
59.66000 105.000
59.68000 103.000
59.70000 89.000
59.72000 100.000
59.74000 112.000
59.76000 86.000
59.78000 114.000
59.80000 100.000
59.82000 108.000
59.84000 101.000
59.86000 101.000
59.88000 123.000
59.90000 109.000
59.92000 100.000
59.94000 88.000
59.96000 89.000
