5.00000 758.000
5.02000 872.000
5.04000 802.000
5.06000 799.000
5.08000 766.000
5.10000 784.000
5.12000 814.000
5.14000 810.000
5.16000 697.000
5.18000 761.000
5.20000 820.000
5.22000 772.000
5.24000 789.000
5.26000 754.000
5.28000 770.000
5.30000 755.000
5.32000 730.000
5.34000 738.000
5.36000 763.000
5.38000 738.000
5.40000 777.000
5.42000 761.000
5.44000 698.000
5.46000 717.000
5.48000 769.000
5.50000 798.000
5.52000 770.000
5.54000 665.000
5.56000 722.000
5.58000 764.000
5.60000 733.000
5.62000 703.000
5.64000 682.000
5.66000 692.000
5.68000 698.000
5.70000 726.000
5.72000 691.000
5.74000 722.000
5.76000 691.000
5.78000 662.000
5.80000 678.000
5.82000 646.000
5.84000 702.000
5.86000 635.000
5.88000 704.000
5.90000 706.000
5.92000 693.000
5.94000 664.000
5.96000 655.000
5.98000 677.000
6.00000 697.000
6.02000 682.000
6.04000 657.000
6.06000 649.000
6.08000 634.000
6.10000 658.000
6.12000 637.000
6.14000 660.000
6.16000 668.000
6.18000 651.000
6.20000 654.000
6.22000 662.000
6.24000 650.000
6.26000 622.000
6.28000 620.000
6.30000 615.000
6.32000 633.000
6.34000 634.000
6.36000 566.000
6.38000 596.000
6.40000 637.000
6.42000 582.000
6.44000 608.000
6.46000 646.000
6.48000 624.000
6.50000 589.000
6.52000 584.000
6.54000 558.000
6.56000 591.000
6.58000 605.000
6.60000 631.000
6.62000 581.000
6.64000 592.000
6.66000 580.000
6.68000 630.000
6.70000 631.000
6.72000 619.000
6.74000 592.000
6.76000 556.000
6.78000 594.000
6.80000 584.000
6.82000 534.000
6.84000 585.000
6.86000 570.000
6.88000 551.000
6.90000 591.000
6.92000 600.000
6.94000 597.000
6.96000 588.000
6.98000 545.000
7.00000 551.000
7.02000 540.000
7.04000 544.000
7.06000 584.000
7.08000 535.000
7.10000 587.000
7.12000 556.000
7.14000 583.000
7.16000 545.000
7.18000 547.000
7.20000 516.000
7.22000 586.000
7.24000 528.000
7.26000 505.000
7.28000 535.000
7.30000 528.000
7.32000 513.000
7.34000 538.000
7.36000 510.000
7.38000 567.000
7.40000 546.000
7.42000 512.000
7.44000 533.000
7.46000 527.000
7.48000 491.000
7.50000 472.000
7.52000 535.000
7.54000 503.000
7.56000 480.000
7.58000 517.000
7.60000 570.000
7.62000 505.000
7.64000 507.000
7.66000 485.000
7.68000 490.000
7.70000 503.000
7.72000 500.000
7.74000 525.000
7.76000 496.000
7.78000 498.000
7.80000 552.000
7.82000 511.000
7.84000 533.000
7.86000 514.000
7.88000 490.000
7.90000 479.000
7.92000 543.000
7.94000 505.000
7.96000 484.000
7.98000 467.000
8.00000 511.000
8.02000 491.000
8.04000 558.000
8.06000 450.000
8.08000 469.000
8.10000 486.000
8.12000 509.000
8.14000 489.000
8.16000 437.000
8.18000 457.000
8.20000 488.000
8.22000 463.000
8.24000 450.000
8.26000 451.000
8.28000 487.000
8.30000 483.000
8.32000 488.000
8.34000 475.000
8.36000 455.000
8.38000 474.000
8.40000 444.000
8.42000 448.000
8.44000 455.000
8.46000 453.000
8.48000 446.000
8.50000 459.000
8.52000 446.000
8.54000 452.000
8.56000 463.000
8.58000 459.000
8.60000 441.000
8.62000 449.000
8.64000 449.000
8.66000 420.000
8.68000 446.000
8.70000 451.000
8.72000 480.000
8.74000 433.000
8.76000 451.000
8.78000 501.000
8.80000 417.000
8.82000 437.000
8.84000 449.000
8.86000 450.000
8.88000 456.000
8.90000 429.000
8.92000 438.000
8.94000 422.000
8.96000 437.000
8.98000 425.000
9.00000 423.000
9.02000 440.000
9.04000 414.000
9.06000 466.000
9.08000 438.000
9.10000 432.000
9.12000 446.000
9.14000 403.000
9.16000 435.000
9.18000 442.000
9.20000 392.000
9.22000 438.000
9.24000 439.000
9.26000 444.000
9.28000 405.000
9.30000 404.000
9.32000 398.000
9.34000 413.000
9.36000 380.000
9.38000 441.000
9.40000 423.000
9.42000 420.000
9.44000 377.000
9.46000 383.000
9.48000 393.000
9.50000 396.000
9.52000 381.000
9.54000 399.000
9.56000 412.000
9.58000 424.000
9.60000 380.000
9.62000 381.000
9.64000 405.000
9.66000 417.000
9.68000 385.000
9.70000 387.000
9.72000 414.000
9.74000 400.000
9.76000 426.000
9.78000 391.000
9.80000 438.000
9.82000 380.000
9.84000 398.000
9.86000 414.000
9.88000 394.000
9.90000 395.000
9.92000 433.000
9.94000 384.000
9.96000 411.000
9.98000 407.000
10.00000 391.000
10.02000 389.000
10.04000 424.000
10.06000 409.000
10.08000 385.000
10.10000 379.000
10.12000 388.000
10.14000 366.000
10.16000 396.000
10.18000 418.000
10.20000 380.000
10.22000 348.000
10.24000 356.000
10.26000 380.000
10.28000 406.000
10.30000 369.000
10.32000 377.000
10.34000 332.000
10.36000 365.000
10.38000 404.000
10.40000 353.000
10.42000 336.000
10.44000 364.000
10.46000 343.000
10.48000 382.000
10.50000 333.000
10.52000 338.000
10.54000 366.000
10.56000 324.000
10.58000 341.000
10.60000 325.000
10.62000 354.000
10.64000 354.000
10.66000 326.000
10.68000 366.000
10.70000 356.000
10.72000 354.000
10.74000 381.000
10.76000 345.000
10.78000 322.000
10.80000 383.000
10.82000 339.000
10.84000 372.000
10.86000 377.000
10.88000 369.000
10.90000 328.000
10.92000 357.000
10.94000 329.000
10.96000 332.000
10.98000 337.000
11.00000 339.000
11.02000 340.000
11.04000 320.000
11.06000 339.000
11.08000 349.000
11.10000 341.000
11.12000 341.000
11.14000 357.000
11.16000 334.000
11.18000 333.000
11.20000 359.000
11.22000 313.000
11.24000 361.000
11.26000 334.000
11.28000 359.000
11.30000 321.000
11.32000 394.000
11.34000 344.000
11.36000 361.000
11.38000 357.000
11.40000 345.000
11.42000 333.000
11.44000 393.000
11.46000 334.000
11.48000 348.000
11.50000 380.000
11.52000 375.000
11.54000 374.000
11.56000 407.000
11.58000 354.000
11.60000 369.000
11.62000 370.000
11.64000 338.000
11.66000 361.000
11.68000 351.000
11.70000 352.000
11.72000 380.000
11.74000 350.000
11.76000 377.000
11.78000 358.000
11.80000 358.000
11.82000 358.000
11.84000 352.000
11.86000 305.000
11.88000 362.000
11.90000 378.000
11.92000 333.000
11.94000 327.000
11.96000 344.000
11.98000 345.000
12.00000 346.000
12.02000 329.000
12.04000 370.000
12.06000 336.000
12.08000 351.000
12.10000 341.000
12.12000 315.000
12.14000 340.000
12.16000 355.000
12.18000 318.000
12.20000 361.000
12.22000 335.000
12.24000 348.000
12.26000 330.000
12.28000 321.000
12.30000 344.000
12.32000 327.000
12.34000 333.000
12.36000 329.000
12.38000 339.000
12.40000 350.000
12.42000 322.000
12.44000 324.000
12.46000 334.000
12.48000 359.000
12.50000 328.000
12.52000 344.000
12.54000 347.000
12.56000 328.000
12.58000 350.000
12.60000 365.000
12.62000 380.000
12.64000 332.000
12.66000 343.000
12.68000 312.000
12.70000 344.000
12.72000 316.000
12.74000 298.000
12.76000 323.000
12.78000 348.000
12.80000 340.000
12.82000 355.000
12.84000 363.000
12.86000 322.000
12.88000 365.000
12.90000 351.000
12.92000 335.000
12.94000 361.000
12.96000 358.000
12.98000 351.000
13.00000 346.000
13.02000 382.000
13.04000 367.000
13.06000 368.000
13.08000 358.000
13.10000 384.000
13.12000 369.000
13.14000 386.000
13.16000 407.000
13.18000 414.000
13.20000 432.000
13.22000 420.000
13.24000 426.000
13.26000 450.000
13.28000 434.000
13.30000 426.000
13.32000 499.000
13.34000 497.000
13.36000 554.000
13.38000 552.000
13.40000 561.000
13.42000 586.000
13.44000 683.000
13.46000 620.000
13.48000 588.000
13.50000 665.000
13.52000 654.000
13.54000 671.000
13.56000 730.000
13.58000 722.000
13.60000 740.000
13.62000 768.000
13.64000 825.000
13.66000 821.000
13.68000 883.000
13.70000 947.000
13.72000 1032.000
13.74000 1056.000
13.76000 1180.000
13.78000 1182.000
13.80000 1233.000
13.82000 1468.000
13.84000 1535.000
13.86000 1632.000
13.88000 1758.000
13.90000 1883.000
13.92000 2099.000
13.94000 2348.000
13.96000 2606.000
13.98000 2781.000
14.00000 3084.000
14.02000 3345.000
14.04000 3720.000
14.06000 3836.000
14.08000 3891.000
14.10000 3692.000
14.12000 3151.000
14.14000 2734.000
14.16000 2117.000
14.18000 1759.000
14.20000 1372.000
14.22000 1057.000
14.24000 927.000
14.26000 791.000
14.28000 662.000
14.30000 583.000
14.32000 546.000
14.34000 480.000
14.36000 428.000
14.38000 383.000
14.40000 412.000
14.42000 364.000
14.44000 336.000
14.46000 338.000
14.48000 316.000
14.50000 352.000
14.52000 312.000
14.54000 304.000
14.56000 311.000
14.58000 277.000
14.60000 331.000
14.62000 306.000
14.64000 279.000
14.66000 316.000
14.68000 263.000
14.70000 304.000
14.72000 284.000
14.74000 296.000
14.76000 281.000
14.78000 251.000
14.80000 277.000
14.82000 259.000
14.84000 274.000
14.86000 275.000
14.88000 253.000
14.90000 292.000
14.92000 252.000
14.94000 264.000
14.96000 251.000
14.98000 280.000
15.00000 252.000
15.02000 253.000
15.04000 260.000
15.06000 232.000
15.08000 268.000
15.10000 279.000
15.12000 268.000
15.14000 246.000
15.16000 276.000
15.18000 263.000
15.20000 233.000
15.22000 255.000
15.24000 253.000
15.26000 253.000
15.28000 251.000
15.30000 248.000
15.32000 231.000
15.34000 246.000
15.36000 241.000
15.38000 252.000
15.40000 244.000
15.42000 238.000
15.44000 244.000
15.46000 250.000
15.48000 225.000
15.50000 219.000
15.52000 257.000
15.54000 234.000
15.56000 230.000
15.58000 251.000
15.60000 245.000
15.62000 239.000
15.64000 200.000
15.66000 237.000
15.68000 226.000
15.70000 241.000
15.72000 212.000
15.74000 230.000
15.76000 251.000
15.78000 237.000
15.80000 236.000
15.82000 219.000
15.84000 248.000
15.86000 233.000
15.88000 216.000
15.90000 273.000
15.92000 235.000
15.94000 233.000
15.96000 227.000
15.98000 239.000
16.00000 246.000
16.02000 257.000
16.04000 216.000
16.06000 227.000
16.08000 242.000
16.10000 244.000
16.12000 229.000
16.14000 226.000
16.16000 259.000
16.18000 259.000
16.20000 219.000
16.22000 241.000
16.24000 217.000
16.26000 237.000
16.28000 254.000
16.30000 207.000
16.32000 204.000
16.34000 240.000
16.36000 236.000
16.38000 228.000
16.40000 232.000
16.42000 216.000
16.44000 225.000
16.46000 219.000
16.48000 228.000
16.50000 234.000
16.52000 218.000
16.54000 226.000
16.56000 201.000
16.58000 224.000
16.60000 221.000
16.62000 228.000
16.64000 254.000
16.66000 228.000
16.68000 222.000
16.70000 188.000
16.72000 260.000
16.74000 203.000
16.76000 239.000
16.78000 235.000
16.80000 179.000
16.82000 241.000
16.84000 239.000
16.86000 211.000
16.88000 210.000
16.90000 237.000
16.92000 210.000
16.94000 229.000
16.96000 233.000
16.98000 210.000
17.00000 240.000
17.02000 224.000
17.04000 206.000
17.06000 222.000
17.08000 208.000
17.10000 193.000
17.12000 223.000
17.14000 230.000
17.16000 202.000
17.18000 251.000
17.20000 219.000
17.22000 246.000
17.24000 252.000
17.26000 246.000
17.28000 237.000
17.30000 238.000
17.32000 217.000
17.34000 246.000
17.36000 246.000
17.38000 260.000
17.40000 237.000
17.42000 274.000
17.44000 281.000
17.46000 290.000
17.48000 249.000
17.50000 263.000
17.52000 265.000
17.54000 246.000
17.56000 235.000
17.58000 213.000
17.60000 226.000
17.62000 222.000
17.64000 224.000
17.66000 227.000
17.68000 246.000
17.70000 200.000
17.72000 220.000
17.74000 228.000
17.76000 235.000
17.78000 210.000
17.80000 237.000
17.82000 239.000
17.84000 206.000
17.86000 218.000
17.88000 194.000
17.90000 214.000
17.92000 178.000
17.94000 227.000
17.96000 222.000
17.98000 217.000
18.00000 234.000
18.02000 198.000
18.04000 226.000
18.06000 205.000
18.08000 204.000
18.10000 218.000
18.12000 178.000
18.14000 219.000
18.16000 225.000
18.18000 208.000
18.20000 209.000
18.22000 238.000
18.24000 216.000
18.26000 213.000
18.28000 209.000
18.30000 228.000
18.32000 231.000
18.34000 217.000
18.36000 206.000
18.38000 221.000
18.40000 212.000
18.42000 208.000
18.44000 217.000
18.46000 246.000
18.48000 207.000
18.50000 230.000
18.52000 215.000
18.54000 220.000
18.56000 193.000
18.58000 211.000
18.60000 193.000
18.62000 233.000
18.64000 209.000
18.66000 205.000
18.68000 203.000
18.70000 210.000
18.72000 214.000
18.74000 198.000
18.76000 196.000
18.78000 227.000
18.80000 214.000
18.82000 234.000
18.84000 198.000
18.86000 200.000
18.88000 206.000
18.90000 225.000
18.92000 204.000
18.94000 225.000
18.96000 234.000
18.98000 225.000
19.00000 210.000
19.02000 221.000
19.04000 230.000
19.06000 217.000
19.08000 234.000
19.10000 197.000
19.12000 192.000
19.14000 202.000
19.16000 226.000
19.18000 228.000
19.20000 211.000
19.22000 217.000
19.24000 226.000
19.26000 219.000
19.28000 216.000
19.30000 242.000
19.32000 221.000
19.34000 221.000
19.36000 215.000
19.38000 253.000
19.40000 234.000
19.42000 225.000
19.44000 237.000
19.46000 253.000
19.48000 244.000
19.50000 236.000
19.52000 231.000
19.54000 241.000
19.56000 269.000
19.58000 290.000
19.60000 282.000
19.62000 254.000
19.64000 271.000
19.66000 315.000
19.68000 316.000
19.70000 320.000
19.72000 345.000
19.74000 369.000
19.76000 401.000
19.78000 403.000
19.80000 440.000
19.82000 469.000
19.84000 505.000
19.86000 576.000
19.88000 661.000
19.90000 702.000
19.92000 761.000
19.94000 829.000
19.96000 830.000
19.98000 801.000
20.00000 755.000
20.02000 669.000
20.04000 572.000
20.06000 473.000
20.08000 393.000
20.10000 348.000
20.12000 320.000
20.14000 283.000
20.16000 298.000
20.18000 263.000
20.20000 275.000
20.22000 264.000
20.24000 228.000
20.26000 237.000
20.28000 243.000
20.30000 230.000
20.32000 235.000
20.34000 221.000
20.36000 228.000
20.38000 229.000
20.40000 211.000
20.42000 222.000
20.44000 212.000
20.46000 203.000
20.48000 187.000
20.50000 231.000
20.52000 228.000
20.54000 225.000
20.56000 217.000
20.58000 205.000
20.60000 201.000
20.62000 184.000
20.64000 213.000
20.66000 216.000
20.68000 208.000
20.70000 238.000
20.72000 241.000
20.74000 224.000
20.76000 208.000
20.78000 210.000
20.80000 216.000
20.82000 206.000
20.84000 236.000
20.86000 234.000
20.88000 246.000
20.90000 199.000
20.92000 216.000
20.94000 211.000
20.96000 220.000
20.98000 249.000
21.00000 226.000
21.02000 232.000
21.04000 226.000
21.06000 225.000
21.08000 231.000
21.10000 245.000
21.12000 221.000
21.14000 238.000
21.16000 245.000
21.18000 266.000
21.20000 263.000
21.22000 256.000
21.24000 237.000
21.26000 268.000
21.28000 251.000
21.30000 267.000
21.32000 247.000
21.34000 250.000
21.36000 244.000
21.38000 238.000
21.40000 236.000
21.42000 203.000
21.44000 234.000
21.46000 243.000
21.48000 210.000
21.50000 233.000
21.52000 216.000
21.54000 222.000
21.56000 221.000
21.58000 218.000
21.60000 205.000
21.62000 245.000
21.64000 233.000
21.66000 193.000
21.68000 214.000
21.70000 219.000
21.72000 215.000
21.74000 231.000
21.76000 214.000
21.78000 200.000
21.80000 233.000
21.82000 205.000
21.84000 208.000
21.86000 221.000
21.88000 210.000
21.90000 219.000
21.92000 194.000
21.94000 220.000
21.96000 190.000
21.98000 232.000
22.00000 267.000
22.02000 226.000
22.04000 232.000
22.06000 235.000
22.08000 231.000
22.10000 213.000
22.12000 229.000
22.14000 232.000
22.16000 223.000
22.18000 216.000
22.20000 225.000
22.22000 235.000
22.24000 219.000
22.26000 247.000
22.28000 257.000
22.30000 249.000
22.32000 210.000
22.34000 260.000
22.36000 243.000
22.38000 271.000
22.40000 234.000
22.42000 257.000
22.44000 214.000
22.46000 236.000
22.48000 195.000
22.50000 233.000
22.52000 235.000
22.54000 181.000
22.56000 205.000
22.58000 212.000
22.60000 224.000
22.62000 251.000
22.64000 207.000
22.66000 224.000
22.68000 243.000
22.70000 238.000
22.72000 236.000
22.74000 225.000
22.76000 238.000
22.78000 229.000
22.80000 254.000
22.82000 228.000
22.84000 201.000
22.86000 213.000
22.88000 206.000
22.90000 216.000
22.92000 198.000
22.94000 216.000
22.96000 242.000
22.98000 223.000
23.00000 216.000
23.02000 214.000
23.04000 218.000
23.06000 218.000
23.08000 223.000
23.10000 251.000
23.12000 233.000
23.14000 222.000
23.16000 246.000
23.18000 237.000
23.20000 243.000
23.22000 274.000
23.24000 219.000
23.26000 269.000
23.28000 261.000
23.30000 261.000
23.32000 256.000
23.34000 268.000
23.36000 228.000
23.38000 283.000
23.40000 286.000
23.42000 238.000
23.44000 228.000
23.46000 237.000
23.48000 252.000
23.50000 223.000
23.52000 205.000
23.54000 222.000
23.56000 230.000
23.58000 216.000
23.60000 205.000
23.62000 225.000
23.64000 226.000
23.66000 219.000
23.68000 235.000
23.70000 206.000
23.72000 215.000
23.74000 219.000
23.76000 227.000
23.78000 246.000
23.80000 241.000
23.82000 241.000
23.84000 238.000
23.86000 238.000
23.88000 243.000
23.90000 248.000
23.92000 250.000
23.94000 233.000
23.96000 238.000
23.98000 232.000
24.00000 260.000
24.02000 258.000
24.04000 247.000
24.06000 262.000
24.08000 267.000
24.10000 303.000
24.12000 338.000
24.14000 293.000
24.16000 308.000
24.18000 329.000
24.20000 334.000
24.22000 342.000
24.24000 384.000
24.26000 396.000
24.28000 473.000
24.30000 471.000
24.32000 566.000
24.34000 601.000
24.36000 580.000
24.38000 708.000
24.40000 814.000
24.42000 938.000
24.44000 1030.000
24.46000 1118.000
24.48000 1168.000
24.50000 1146.000
24.52000 1162.000
24.54000 1101.000
24.56000 1020.000
24.58000 842.000
24.60000 756.000
24.62000 616.000
24.64000 524.000
24.66000 499.000
24.68000 403.000
24.70000 368.000
24.72000 355.000
24.74000 318.000
24.76000 316.000
24.78000 288.000
24.80000 276.000
24.82000 251.000
24.84000 286.000
24.86000 253.000
24.88000 273.000
24.90000 237.000
24.92000 272.000
24.94000 264.000
24.96000 245.000
24.98000 254.000
25.00000 270.000
25.02000 272.000
25.04000 258.000
25.06000 265.000
25.08000 243.000
25.10000 252.000
25.12000 229.000
25.14000 241.000
25.16000 257.000
25.18000 243.000
25.20000 242.000
25.22000 230.000
25.24000 281.000
25.26000 244.000
25.28000 215.000
25.30000 235.000
25.32000 254.000
25.34000 258.000
25.36000 218.000
25.38000 280.000
25.40000 238.000
25.42000 245.000
25.44000 261.000
25.46000 247.000
25.48000 237.000
25.50000 255.000
25.52000 268.000
25.54000 240.000
25.56000 246.000
25.58000 270.000
25.60000 293.000
25.62000 264.000
25.64000 291.000
25.66000 276.000
25.68000 264.000
25.70000 283.000
25.72000 287.000
25.74000 296.000
25.76000 306.000
25.78000 318.000
25.80000 335.000
25.82000 361.000
25.84000 396.000
25.86000 396.000
25.88000 347.000
25.90000 332.000
25.92000 290.000
25.94000 292.000
25.96000 289.000
25.98000 291.000
26.00000 246.000
26.02000 280.000
26.04000 277.000
26.06000 261.000
26.08000 279.000
26.10000 275.000
26.12000 289.000
26.14000 250.000
26.16000 265.000
26.18000 291.000
26.20000 267.000
26.22000 275.000
26.24000 287.000
26.26000 272.000
26.28000 285.000
26.30000 243.000
26.32000 264.000
26.34000 217.000
26.36000 250.000
26.38000 243.000
26.40000 254.000
26.42000 235.000
26.44000 271.000
26.46000 225.000
26.48000 253.000
26.50000 245.000
26.52000 243.000
26.54000 257.000
26.56000 257.000
26.58000 247.000
26.60000 269.000
26.62000 250.000
26.64000 232.000
26.66000 232.000
26.68000 239.000
26.70000 267.000
26.72000 242.000
26.74000 254.000
26.76000 252.000
26.78000 254.000
26.80000 271.000
26.82000 258.000
26.84000 249.000
26.86000 301.000
26.88000 256.000
26.90000 271.000
26.92000 270.000
26.94000 303.000
26.96000 294.000
26.98000 324.000
27.00000 329.000
27.02000 336.000
27.04000 367.000
27.06000 396.000
27.08000 391.000
27.10000 411.000
27.12000 417.000
27.14000 393.000
27.16000 439.000
27.18000 441.000
27.20000 374.000
27.22000 414.000
27.24000 418.000
27.26000 440.000
27.28000 433.000
27.30000 424.000
27.32000 414.000
27.34000 343.000
27.36000 370.000
27.38000 361.000
27.40000 326.000
27.42000 324.000
27.44000 329.000
27.46000 339.000
27.48000 319.000
27.50000 342.000
27.52000 350.000
27.54000 376.000
27.56000 367.000
27.58000 405.000
27.60000 412.000
27.62000 463.000
27.64000 468.000
27.66000 493.000
27.68000 495.000
27.70000 494.000
27.72000 486.000
27.74000 487.000
27.76000 441.000
27.78000 472.000
27.80000 452.000
27.82000 387.000
27.84000 391.000
27.86000 370.000
27.88000 378.000
27.90000 383.000
27.92000 395.000
27.94000 401.000
27.96000 467.000
27.98000 478.000
28.00000 522.000
28.02000 547.000
28.04000 596.000
28.06000 676.000
28.08000 769.000
28.10000 827.000
28.12000 928.000
28.14000 1012.000
28.16000 1189.000
28.18000 1206.000
28.20000 1554.000
28.22000 1637.000
28.24000 1988.000
28.26000 2232.000
28.28000 2629.000
28.30000 2959.000
28.32000 3293.000
28.34000 3460.000
28.36000 3573.000
28.38000 3365.000
28.40000 3250.000
28.42000 2826.000
28.44000 2455.000
28.46000 2044.000
28.48000 1664.000
28.50000 1439.000
28.52000 1165.000
28.54000 960.000
28.56000 793.000
28.58000 687.000
28.60000 652.000
28.62000 556.000
28.64000 472.000
28.66000 471.000
28.68000 426.000
28.70000 370.000
28.72000 407.000
28.74000 337.000
28.76000 363.000
28.78000 332.000
28.80000 356.000
28.82000 296.000
28.84000 319.000
28.86000 303.000
28.88000 296.000
28.90000 265.000
28.92000 278.000
28.94000 291.000
28.96000 278.000
28.98000 281.000
29.00000 271.000
29.02000 283.000
29.04000 276.000
29.06000 265.000
29.08000 251.000
29.10000 270.000
29.12000 256.000
29.14000 246.000
29.16000 262.000
29.18000 263.000
29.20000 279.000
29.22000 242.000
29.24000 254.000
29.26000 254.000
29.28000 265.000
29.30000 252.000
29.32000 236.000
29.34000 234.000
29.36000 239.000
29.38000 262.000
29.40000 237.000
29.42000 261.000
29.44000 267.000
29.46000 240.000
29.48000 211.000
29.50000 221.000
29.52000 226.000
29.54000 226.000
29.56000 235.000
29.58000 223.000
29.60000 248.000
29.62000 232.000
29.64000 242.000
29.66000 243.000
29.68000 230.000
29.70000 222.000
29.72000 244.000
29.74000 224.000
29.76000 233.000
29.78000 223.000
29.80000 240.000
29.82000 219.000
29.84000 213.000
29.86000 236.000
29.88000 247.000
29.90000 207.000
29.92000 217.000
29.94000 257.000
29.96000 246.000
29.98000 266.000
30.00000 255.000
30.02000 259.000
30.04000 243.000
30.06000 254.000
30.08000 297.000
30.10000 262.000
30.12000 251.000
30.14000 231.000
30.16000 228.000
30.18000 238.000
30.20000 245.000
30.22000 235.000
30.24000 254.000
30.26000 243.000
30.28000 254.000
30.30000 252.000
30.32000 270.000
30.34000 252.000
30.36000 237.000
30.38000 245.000
30.40000 246.000
30.42000 264.000
30.44000 274.000
30.46000 278.000
30.48000 243.000
30.50000 244.000
30.52000 250.000
30.54000 232.000
30.56000 247.000
30.58000 230.000
30.60000 222.000
30.62000 252.000
30.64000 252.000
30.66000 240.000
30.68000 262.000
30.70000 257.000
30.72000 241.000
30.74000 249.000
30.76000 242.000
30.78000 247.000
30.80000 232.000
30.82000 257.000
30.84000 252.000
30.86000 256.000
30.88000 223.000
30.90000 242.000
30.92000 266.000
30.94000 239.000
30.96000 267.000
30.98000 257.000
31.00000 247.000
31.02000 239.000
31.04000 262.000
31.06000 237.000
31.08000 291.000
31.10000 279.000
31.12000 247.000
31.14000 250.000
31.16000 284.000
31.18000 266.000
31.20000 275.000
31.22000 276.000
31.24000 254.000
31.26000 305.000
31.28000 313.000
31.30000 306.000
31.32000 307.000
31.34000 342.000
31.36000 367.000
31.38000 333.000
31.40000 410.000
31.42000 415.000
31.44000 457.000
31.46000 464.000
31.48000 507.000
31.50000 607.000
31.52000 653.000
31.54000 743.000
31.56000 850.000
31.58000 951.000
31.60000 1093.000
31.62000 1270.000
31.64000 1476.000
31.66000 1704.000
31.68000 2000.000
31.70000 2323.000
31.72000 2651.000
31.74000 3005.000
31.76000 3353.000
31.78000 3412.000
31.80000 3382.000
31.82000 3199.000
31.84000 2873.000
31.86000 2558.000
31.88000 2236.000
31.90000 1809.000
31.92000 1534.000
31.94000 1206.000
31.96000 1038.000
31.98000 850.000
32.00000 757.000
32.02000 650.000
32.04000 539.000
32.06000 503.000
32.08000 399.000
32.10000 400.000
32.12000 363.000
32.14000 362.000
32.16000 339.000
32.18000 305.000
32.20000 286.000
32.22000 277.000
32.24000 240.000
32.26000 269.000
32.28000 270.000
32.30000 277.000
32.32000 282.000
32.34000 260.000
32.36000 235.000
32.38000 251.000
32.40000 233.000
32.42000 229.000
32.44000 222.000
32.46000 229.000
32.48000 206.000
32.50000 244.000
32.52000 201.000
32.54000 231.000
32.56000 190.000
32.58000 211.000
32.60000 216.000
32.62000 226.000
32.64000 203.000
32.66000 204.000
32.68000 229.000
32.70000 208.000
32.72000 208.000
32.74000 190.000
32.76000 183.000
32.78000 209.000
32.80000 205.000
32.82000 184.000
32.84000 183.000
32.86000 206.000
32.88000 181.000
32.90000 189.000
32.92000 171.000
32.94000 186.000
32.96000 188.000
32.98000 202.000
33.00000 184.000
33.02000 218.000
33.04000 173.000
33.06000 192.000
33.08000 189.000
33.10000 208.000
33.12000 204.000
33.14000 179.000
33.16000 198.000
33.18000 215.000
33.20000 200.000
33.22000 192.000
33.24000 176.000
33.26000 157.000
33.28000 174.000
33.30000 197.000
33.32000 181.000
33.34000 207.000
33.36000 195.000
33.38000 198.000
33.40000 196.000
33.42000 217.000
33.44000 161.000
33.46000 203.000
33.48000 178.000
33.50000 147.000
33.52000 175.000
33.54000 201.000
33.56000 187.000
33.58000 182.000
33.60000 180.000
33.62000 177.000
33.64000 188.000
33.66000 167.000
33.68000 186.000
33.70000 158.000
33.72000 179.000
33.74000 202.000
33.76000 174.000
33.78000 170.000
33.80000 164.000
33.82000 187.000
33.84000 174.000
33.86000 183.000
33.88000 187.000
33.90000 152.000
33.92000 171.000
33.94000 174.000
33.96000 208.000
33.98000 167.000
34.00000 187.000
34.02000 171.000
34.04000 180.000
34.06000 215.000
34.08000 194.000
34.10000 178.000
34.12000 151.000
34.14000 177.000
34.16000 142.000
34.18000 177.000
34.20000 183.000
34.22000 184.000
34.24000 175.000
34.26000 167.000
34.28000 188.000
34.30000 180.000
34.32000 160.000
34.34000 194.000
34.36000 164.000
34.38000 167.000
34.40000 169.000
34.42000 180.000
34.44000 191.000
34.46000 175.000
34.48000 200.000
34.50000 211.000
34.52000 163.000
34.54000 204.000
34.56000 209.000
34.58000 190.000
34.60000 201.000
34.62000 208.000
34.64000 214.000
34.66000 252.000
34.68000 254.000
34.70000 274.000
34.72000 257.000
34.74000 268.000
34.76000 336.000
34.78000 339.000
34.80000 373.000
34.82000 403.000
34.84000 492.000
34.86000 533.000
34.88000 593.000
34.90000 600.000
34.92000 597.000
34.94000 613.000
34.96000 563.000
34.98000 547.000
35.00000 480.000
35.02000 404.000
35.04000 385.000
35.06000 342.000
35.08000 270.000
35.10000 251.000
35.12000 256.000
35.14000 225.000
35.16000 240.000
35.18000 223.000
35.20000 198.000
35.22000 227.000
35.24000 205.000
35.26000 204.000
35.28000 176.000
35.30000 167.000
35.32000 176.000
35.34000 160.000
35.36000 190.000
35.38000 157.000
35.40000 197.000
35.42000 148.000
35.44000 192.000
35.46000 166.000
35.48000 153.000
35.50000 172.000
35.52000 157.000
35.54000 153.000
35.56000 168.000
35.58000 161.000
35.60000 156.000
35.62000 158.000
35.64000 160.000
35.66000 179.000
35.68000 142.000
35.70000 167.000
35.72000 163.000
35.74000 154.000
35.76000 187.000
35.78000 161.000
35.80000 153.000
35.82000 159.000
35.84000 158.000
35.86000 157.000
35.88000 192.000
35.90000 167.000
35.92000 155.000
35.94000 155.000
35.96000 144.000
35.98000 155.000
36.00000 169.000
36.02000 177.000
36.04000 165.000
36.06000 159.000
36.08000 170.000
36.10000 175.000
36.12000 175.000
36.14000 146.000
36.16000 165.000
36.18000 164.000
36.20000 145.000
36.22000 171.000
36.24000 176.000
36.26000 178.000
36.28000 157.000
36.30000 119.000
36.32000 153.000
36.34000 138.000
36.36000 165.000
36.38000 158.000
36.40000 149.000
36.42000 158.000
36.44000 148.000
36.46000 168.000
36.48000 149.000
36.50000 162.000
36.52000 164.000
36.54000 179.000
36.56000 175.000
36.58000 163.000
36.60000 156.000
36.62000 173.000
36.64000 162.000
36.66000 166.000
36.68000 162.000
36.70000 164.000
36.72000 151.000
36.74000 159.000
36.76000 193.000
36.78000 152.000
36.80000 161.000
36.82000 162.000
36.84000 159.000
36.86000 155.000
36.88000 181.000
36.90000 152.000
36.92000 168.000
36.94000 176.000
36.96000 144.000
36.98000 143.000
37.00000 149.000
37.02000 161.000
37.04000 153.000
37.06000 164.000
37.08000 139.000
37.10000 166.000
37.12000 170.000
37.14000 164.000
37.16000 165.000
37.18000 164.000
37.20000 167.000
37.22000 147.000
37.24000 185.000
37.26000 161.000
37.28000 179.000
37.30000 142.000
37.32000 180.000
37.34000 140.000
37.36000 180.000
37.38000 167.000
37.40000 146.000
37.42000 178.000
37.44000 170.000
37.46000 158.000
37.48000 157.000
37.50000 151.000
37.52000 150.000
37.54000 157.000
37.56000 151.000
37.58000 142.000
37.60000 163.000
37.62000 147.000
37.64000 162.000
37.66000 135.000
37.68000 157.000
37.70000 164.000
37.72000 132.000
37.74000 158.000
37.76000 151.000
37.78000 144.000
37.80000 176.000
37.82000 152.000
37.84000 164.000
37.86000 166.000
37.88000 157.000
37.90000 155.000
37.92000 152.000
37.94000 152.000
37.96000 137.000
37.98000 150.000
38.00000 142.000
38.02000 172.000
38.04000 142.000
38.06000 134.000
38.08000 142.000
38.10000 145.000
38.12000 138.000
38.14000 159.000
38.16000 156.000
38.18000 154.000
38.20000 128.000
38.22000 167.000
38.24000 177.000
38.26000 145.000
38.28000 159.000
38.30000 167.000
38.32000 166.000
38.34000 165.000
38.36000 154.000
38.38000 167.000
38.40000 164.000
38.42000 166.000
38.44000 169.000
38.46000 137.000
38.48000 155.000
38.50000 169.000
38.52000 164.000
38.54000 159.000
38.56000 160.000
38.58000 199.000
38.60000 192.000
38.62000 215.000
38.64000 212.000
38.66000 220.000
38.68000 217.000
38.70000 230.000
38.72000 272.000
38.74000 278.000
38.76000 198.000
38.78000 211.000
38.80000 237.000
38.82000 212.000
38.84000 214.000
38.86000 169.000
38.88000 173.000
38.90000 195.000
38.92000 183.000
38.94000 130.000
38.96000 166.000
38.98000 192.000
39.00000 146.000
39.02000 165.000
39.04000 138.000
39.06000 160.000
39.08000 168.000
39.10000 163.000
39.12000 143.000
39.14000 167.000
39.16000 197.000
39.18000 152.000
39.20000 140.000
39.22000 152.000
39.24000 185.000
39.26000 161.000
39.28000 156.000
39.30000 176.000
39.32000 172.000
39.34000 158.000
39.36000 178.000
39.38000 151.000
39.40000 168.000
39.42000 159.000
39.44000 186.000
39.46000 153.000
39.48000 158.000
39.50000 154.000
39.52000 178.000
39.54000 145.000
39.56000 188.000
39.58000 166.000
39.60000 176.000
39.62000 162.000
39.64000 152.000
39.66000 186.000
39.68000 153.000
39.70000 145.000
39.72000 141.000
39.74000 186.000
39.76000 173.000
39.78000 158.000
39.80000 167.000
39.82000 173.000
39.84000 169.000
39.86000 191.000
39.88000 176.000
39.90000 197.000
39.92000 172.000
39.94000 190.000
39.96000 183.000
39.98000 188.000
40.00000 150.000
40.02000 182.000
40.04000 204.000
40.06000 200.000
40.08000 198.000
40.10000 163.000
40.12000 221.000
40.14000 211.000
40.16000 208.000
40.18000 211.000
40.20000 255.000
40.22000 300.000
40.24000 306.000
40.26000 339.000
40.28000 341.000
40.30000 381.000
40.32000 482.000
40.34000 501.000
40.36000 610.000
40.38000 686.000
40.40000 866.000
40.42000 999.000
40.44000 1202.000
40.46000 1422.000
40.48000 1510.000
40.50000 1644.000
40.52000 1810.000
40.54000 1857.000
40.56000 1796.000
40.58000 1626.000
40.60000 1567.000
40.62000 1407.000
40.64000 1240.000
40.66000 1073.000
40.68000 929.000
40.70000 808.000
40.72000 680.000
40.74000 559.000
40.76000 458.000
40.78000 394.000
40.80000 395.000
40.82000 314.000
40.84000 287.000
40.86000 255.000
40.88000 273.000
40.90000 207.000
40.92000 210.000
40.94000 220.000
40.96000 217.000
40.98000 195.000
41.00000 197.000
41.02000 204.000
41.04000 191.000
41.06000 194.000
41.08000 184.000
41.10000 197.000
41.12000 204.000
41.14000 196.000
41.16000 201.000
41.18000 174.000
41.20000 206.000
41.22000 176.000
41.24000 197.000
41.26000 170.000
41.28000 193.000
41.30000 182.000
41.32000 189.000
41.34000 159.000
41.36000 168.000
41.38000 182.000
41.40000 197.000
41.42000 149.000
41.44000 174.000
41.46000 155.000
41.48000 186.000
41.50000 192.000
41.52000 173.000
41.54000 162.000
41.56000 180.000
41.58000 175.000
41.60000 172.000
41.62000 187.000
41.64000 154.000
41.66000 156.000
41.68000 158.000
41.70000 182.000
41.72000 173.000
41.74000 162.000
41.76000 198.000
41.78000 162.000
41.80000 151.000
41.82000 164.000
41.84000 162.000
41.86000 173.000
41.88000 176.000
41.90000 165.000
41.92000 182.000
41.94000 162.000
41.96000 161.000
41.98000 187.000
42.00000 159.000
42.02000 160.000
42.04000 196.000
42.06000 175.000
42.08000 180.000
42.10000 157.000
42.12000 198.000
42.14000 192.000
42.16000 200.000
42.18000 198.000
42.20000 200.000
42.22000 173.000
42.24000 206.000
42.26000 188.000
42.28000 202.000
42.30000 191.000
42.32000 207.000
42.34000 172.000
42.36000 184.000
42.38000 190.000
42.40000 177.000
42.42000 174.000
42.44000 163.000
42.46000 172.000
42.48000 183.000
42.50000 166.000
42.52000 185.000
42.54000 190.000
42.56000 176.000
42.58000 190.000
42.60000 176.000
42.62000 175.000
42.64000 186.000
42.66000 187.000
42.68000 179.000
42.70000 207.000
42.72000 202.000
42.74000 227.000
42.76000 267.000
42.78000 237.000
42.80000 236.000
42.82000 274.000
42.84000 313.000
42.86000 361.000
42.88000 366.000
42.90000 448.000
42.92000 521.000
42.94000 531.000
42.96000 689.000
42.98000 809.000
43.00000 931.000
43.02000 1046.000
43.04000 1334.000
43.06000 1399.000
43.08000 1554.000
43.10000 1619.000
43.12000 1599.000
43.14000 1561.000
43.16000 1343.000
43.18000 1294.000
43.20000 1157.000
43.22000 1122.000
43.24000 996.000
43.26000 824.000
43.28000 692.000
43.30000 606.000
43.32000 468.000
43.34000 424.000
43.36000 367.000
43.38000 357.000
43.40000 292.000
43.42000 266.000
43.44000 241.000
43.46000 218.000
43.48000 213.000
43.50000 203.000
43.52000 175.000
43.54000 187.000
43.56000 159.000
43.58000 160.000
43.60000 166.000
43.62000 147.000
43.64000 157.000
43.66000 146.000
43.68000 158.000
43.70000 159.000
43.72000 138.000
43.74000 160.000
43.76000 156.000
43.78000 136.000
43.80000 152.000
43.82000 183.000
43.84000 149.000
43.86000 154.000
43.88000 149.000
43.90000 152.000
43.92000 153.000
43.94000 151.000
43.96000 139.000
43.98000 173.000
44.00000 136.000
44.02000 125.000
44.04000 146.000
44.06000 137.000
44.08000 158.000
44.10000 131.000
44.12000 148.000
44.14000 145.000
44.16000 116.000
44.18000 131.000
44.20000 125.000
44.22000 153.000
44.24000 152.000
44.26000 127.000
44.28000 159.000
44.30000 138.000
44.32000 138.000
44.34000 151.000
44.36000 128.000
44.38000 138.000
44.40000 117.000
44.42000 141.000
44.44000 141.000
44.46000 144.000
44.48000 120.000
44.50000 133.000
44.52000 125.000
44.54000 133.000
44.56000 146.000
44.58000 124.000
44.60000 121.000
44.62000 106.000
44.64000 134.000
44.66000 137.000
44.68000 131.000
44.70000 124.000
44.72000 147.000
44.74000 115.000
44.76000 143.000
44.78000 126.000
44.80000 128.000
44.82000 110.000
44.84000 141.000
44.86000 138.000
44.88000 130.000
44.90000 152.000
44.92000 142.000
44.94000 126.000
44.96000 153.000
44.98000 129.000
45.00000 117.000
45.02000 120.000
45.04000 128.000
45.06000 142.000
45.08000 146.000
45.10000 123.000
45.12000 113.000
45.14000 135.000
45.16000 102.000
45.18000 113.000
45.20000 124.000
45.22000 110.000
45.24000 127.000
45.26000 130.000
45.28000 118.000
45.30000 132.000
45.32000 116.000
45.34000 126.000
45.36000 137.000
45.38000 149.000
45.40000 133.000
45.42000 130.000
45.44000 135.000
45.46000 144.000
45.48000 155.000
45.50000 145.000
45.52000 167.000
45.54000 154.000
45.56000 172.000
45.58000 184.000
45.60000 180.000
45.62000 167.000
45.64000 146.000
45.66000 163.000
45.68000 177.000
45.70000 174.000
45.72000 128.000
45.74000 162.000
45.76000 139.000
45.78000 120.000
45.80000 141.000
45.82000 119.000
45.84000 140.000
45.86000 124.000
45.88000 131.000
45.90000 130.000
45.92000 126.000
45.94000 114.000
45.96000 132.000
45.98000 126.000
46.00000 89.000
46.02000 120.000
46.04000 122.000
46.06000 110.000
46.08000 117.000
46.10000 112.000
46.12000 125.000
46.14000 100.000
46.16000 113.000
46.18000 116.000
46.20000 114.000
46.22000 114.000
46.24000 115.000
46.26000 102.000
46.28000 117.000
46.30000 125.000
46.32000 106.000
46.34000 123.000
46.36000 118.000
46.38000 114.000
46.40000 102.000
46.42000 106.000
46.44000 124.000
46.46000 113.000
46.48000 111.000
46.50000 93.000
46.52000 105.000
46.54000 102.000
46.56000 94.000
46.58000 115.000
46.60000 116.000
46.62000 109.000
46.64000 128.000
46.66000 106.000
46.68000 110.000
46.70000 104.000
46.72000 95.000
46.74000 116.000
46.76000 98.000
46.78000 101.000
46.80000 122.000
46.82000 99.000
46.84000 113.000
46.86000 105.000
46.88000 108.000
46.90000 102.000
46.92000 121.000
46.94000 114.000
46.96000 107.000
46.98000 130.000
47.00000 100.000
47.02000 126.000
47.04000 120.000
47.06000 124.000
47.08000 132.000
47.10000 112.000
47.12000 110.000
47.14000 116.000
47.16000 120.000
47.18000 131.000
47.20000 116.000
47.22000 143.000
47.24000 126.000
47.26000 147.000
47.28000 119.000
47.30000 114.000
47.32000 128.000
47.34000 104.000
47.36000 118.000
47.38000 120.000
47.40000 109.000
47.42000 139.000
47.44000 105.000
47.46000 122.000
47.48000 108.000
47.50000 116.000
47.52000 110.000
47.54000 126.000
47.56000 115.000
47.58000 104.000
47.60000 106.000
47.62000 123.000
47.64000 105.000
47.66000 106.000
47.68000 119.000
47.70000 117.000
47.72000 111.000
47.74000 124.000
47.76000 105.000
47.78000 104.000
47.80000 128.000
47.82000 145.000
47.84000 146.000
47.86000 153.000
47.88000 141.000
47.90000 163.000
47.92000 157.000
47.94000 169.000
47.96000 147.000
47.98000 153.000
48.00000 151.000
48.02000 136.000
48.04000 117.000
48.06000 111.000
48.08000 130.000
48.10000 123.000
48.12000 126.000
48.14000 113.000
48.16000 98.000
48.18000 117.000
48.20000 118.000
48.22000 121.000
48.24000 125.000
48.26000 95.000
48.28000 102.000
48.30000 108.000
48.32000 120.000
48.34000 102.000
48.36000 114.000
48.38000 116.000
48.40000 126.000
48.42000 99.000
48.44000 103.000
48.46000 106.000
48.48000 92.000
48.50000 103.000
48.52000 97.000
48.54000 113.000
48.56000 98.000
48.58000 114.000
48.60000 113.000
48.62000 115.000
48.64000 119.000
48.66000 100.000
48.68000 100.000
48.70000 92.000
48.72000 128.000
48.74000 97.000
48.76000 116.000
48.78000 114.000
48.80000 98.000
48.82000 97.000
48.84000 124.000
48.86000 101.000
48.88000 118.000
48.90000 100.000
48.92000 108.000
48.94000 92.000
48.96000 102.000
48.98000 102.000
49.00000 98.000
49.02000 112.000
49.04000 99.000
49.06000 103.000
49.08000 92.000
49.10000 107.000
49.12000 115.000
49.14000 116.000
49.16000 117.000
49.18000 100.000
49.20000 97.000
49.22000 112.000
49.24000 108.000
49.26000 93.000
49.28000 95.000
49.30000 115.000
49.32000 92.000
49.34000 114.000
49.36000 100.000
49.38000 101.000
49.40000 107.000
49.42000 121.000
49.44000 94.000
49.46000 117.000
49.48000 99.000
49.50000 94.000
49.52000 92.000
49.54000 123.000
49.56000 86.000
49.58000 115.000
49.60000 111.000
49.62000 120.000
49.64000 99.000
49.66000 119.000
49.68000 127.000
49.70000 110.000
49.72000 115.000
49.74000 129.000
49.76000 109.000
49.78000 104.000
49.80000 102.000
49.82000 134.000
49.84000 113.000
49.86000 126.000
49.88000 155.000
49.90000 155.000
49.92000 138.000
49.94000 171.000
49.96000 161.000
49.98000 168.000
50.00000 165.000
50.02000 198.000
50.04000 216.000
50.06000 256.000
50.08000 290.000
50.10000 320.000
50.12000 368.000
50.14000 420.000
50.16000 438.000
50.18000 485.000
50.20000 461.000
50.22000 464.000
50.24000 455.000
50.26000 414.000
50.28000 396.000
50.30000 359.000
50.32000 304.000
50.34000 340.000
50.36000 275.000
50.38000 258.000
50.40000 237.000
50.42000 216.000
50.44000 206.000
50.46000 204.000
50.48000 143.000
50.50000 152.000
50.52000 166.000
50.54000 121.000
50.56000 139.000
50.58000 135.000
50.60000 154.000
50.62000 132.000
50.64000 113.000
50.66000 112.000
50.68000 101.000
50.70000 99.000
50.72000 124.000
50.74000 112.000
50.76000 109.000
50.78000 97.000
50.80000 103.000
50.82000 91.000
50.84000 103.000
50.86000 112.000
50.88000 99.000
50.90000 84.000
50.92000 96.000
50.94000 102.000
50.96000 104.000
50.98000 115.000
51.00000 114.000
51.02000 106.000
51.04000 88.000
51.06000 105.000
51.08000 102.000
51.10000 98.000
51.12000 92.000
51.14000 80.000
51.16000 99.000
51.18000 104.000
51.20000 94.000
51.22000 115.000
51.24000 95.000
51.26000 110.000
51.28000 116.000
51.30000 111.000
51.32000 109.000
51.34000 96.000
51.36000 77.000
51.38000 90.000
51.40000 94.000
51.42000 123.000
51.44000 105.000
51.46000 102.000
51.48000 101.000
51.50000 104.000
51.52000 100.000
51.54000 118.000
51.56000 109.000
51.58000 115.000
51.60000 88.000
51.62000 88.000
51.64000 86.000
51.66000 88.000
51.68000 93.000
51.70000 94.000
51.72000 116.000
51.74000 108.000
51.76000 102.000
51.78000 105.000
51.80000 97.000
51.82000 105.000
51.84000 117.000
51.86000 104.000
51.88000 95.000
51.90000 113.000
51.92000 115.000
51.94000 84.000
51.96000 101.000
51.98000 120.000
52.00000 112.000
52.02000 112.000
52.04000 139.000
52.06000 97.000
52.08000 126.000
52.10000 133.000
52.12000 152.000
52.14000 131.000
52.16000 134.000
52.18000 158.000
52.20000 180.000
52.22000 181.000
52.24000 196.000
52.26000 229.000
52.28000 253.000
52.30000 272.000
52.32000 326.000
52.34000 327.000
52.36000 361.000
52.38000 386.000
52.40000 398.000
52.42000 424.000
52.44000 357.000
52.46000 313.000
52.48000 310.000
52.50000 326.000
52.52000 299.000
52.54000 272.000
52.56000 257.000
52.58000 249.000
52.60000 215.000
52.62000 187.000
52.64000 164.000
52.66000 154.000
52.68000 153.000
52.70000 122.000
52.72000 111.000
52.74000 111.000
52.76000 110.000
52.78000 123.000
52.80000 114.000
52.82000 102.000
52.84000 104.000
52.86000 106.000
52.88000 104.000
52.90000 100.000
52.92000 104.000
52.94000 116.000
52.96000 101.000
52.98000 119.000
53.00000 104.000
53.02000 100.000
53.04000 105.000
53.06000 100.000
53.08000 68.000
53.10000 106.000
53.12000 101.000
53.14000 99.000
53.16000 90.000
53.18000 102.000
53.20000 97.000
53.22000 92.000
53.24000 90.000
53.26000 99.000
53.28000 81.000
53.30000 113.000
53.32000 111.000
53.34000 101.000
53.36000 89.000
53.38000 107.000
53.40000 107.000
53.42000 102.000
53.44000 107.000
53.46000 120.000
53.48000 89.000
53.50000 96.000
53.52000 75.000
53.54000 91.000
53.56000 87.000
53.58000 78.000
53.60000 83.000
53.62000 113.000
53.64000 101.000
53.66000 86.000
53.68000 108.000
53.70000 81.000
53.72000 102.000
53.74000 80.000
53.76000 110.000
53.78000 84.000
53.80000 93.000
53.82000 96.000
53.84000 105.000
53.86000 87.000
53.88000 107.000
53.90000 101.000
53.92000 95.000
53.94000 94.000
53.96000 91.000
53.98000 88.000
54.00000 93.000
54.02000 92.000
54.04000 93.000
54.06000 105.000
54.08000 86.000
54.10000 102.000
54.12000 97.000
54.14000 92.000
54.16000 91.000
54.18000 93.000
54.20000 96.000
54.22000 112.000
54.24000 121.000
54.26000 102.000
54.28000 106.000
54.30000 104.000
54.32000 91.000
54.34000 109.000
54.36000 106.000
54.38000 114.000
54.40000 106.000
54.42000 135.000
54.44000 143.000
54.46000 153.000
54.48000 154.000
54.50000 165.000
54.52000 167.000
54.54000 153.000
54.56000 184.000
54.58000 161.000
54.60000 148.000
54.62000 147.000
54.64000 143.000
54.66000 159.000
54.68000 135.000
54.70000 145.000
54.72000 134.000
54.74000 108.000
54.76000 110.000
54.78000 110.000
54.80000 88.000
54.82000 86.000
54.84000 104.000
54.86000 112.000
54.88000 99.000
54.90000 102.000
54.92000 73.000
54.94000 88.000
54.96000 100.000
54.98000 111.000
55.00000 98.000
55.02000 92.000
55.04000 90.000
55.06000 104.000
55.08000 87.000
55.10000 90.000
55.12000 83.000
55.14000 77.000
55.16000 107.000
55.18000 126.000
55.20000 102.000
55.22000 93.000
55.24000 97.000
55.26000 98.000
55.28000 92.000
55.30000 95.000
55.32000 96.000
55.34000 90.000
55.36000 101.000
55.38000 113.000
55.40000 94.000
55.42000 106.000
55.44000 76.000
55.46000 87.000
55.48000 93.000
55.50000 105.000
55.52000 101.000
55.54000 73.000
55.56000 83.000
55.58000 98.000
55.60000 89.000
55.62000 94.000
55.64000 82.000
55.66000 80.000
55.68000 84.000
55.70000 89.000
55.72000 87.000
55.74000 77.000
55.76000 86.000
55.78000 78.000
55.80000 86.000
55.82000 84.000
55.84000 82.000
55.86000 81.000
55.88000 87.000
55.90000 89.000
55.92000 90.000
55.94000 92.000
55.96000 90.000
55.98000 103.000
56.00000 80.000
56.02000 82.000
56.04000 82.000
56.06000 102.000
56.08000 74.000
56.10000 81.000
56.12000 86.000
56.14000 95.000
56.16000 87.000
56.18000 91.000
56.20000 69.000
56.22000 81.000
56.24000 87.000
56.26000 73.000
56.28000 73.000
56.30000 88.000
56.32000 69.000
56.34000 82.000
56.36000 83.000
56.38000 85.000
56.40000 62.000
56.42000 85.000
56.44000 91.000
56.46000 81.000
56.48000 78.000
56.50000 82.000
56.52000 80.000
56.54000 81.000
56.56000 80.000
56.58000 88.000
56.60000 85.000
56.62000 98.000
56.64000 87.000
56.66000 77.000
56.68000 87.000
56.70000 70.000
56.72000 78.000
56.74000 81.000
56.76000 91.000
56.78000 90.000
56.80000 81.000
56.82000 96.000
56.84000 90.000
56.86000 80.000
56.88000 89.000
56.90000 92.000
56.92000 81.000
56.94000 84.000
56.96000 94.000
56.98000 82.000
57.00000 100.000
57.02000 82.000
57.04000 84.000
57.06000 87.000
57.08000 88.000
57.10000 86.000
57.12000 74.000
57.14000 86.000
57.16000 79.000
57.18000 87.000
57.20000 82.000
57.22000 74.000
57.24000 75.000
57.26000 114.000
57.28000 86.000
57.30000 89.000
57.32000 76.000
57.34000 90.000
57.36000 95.000
57.38000 89.000
57.40000 106.000
57.42000 98.000
57.44000 98.000
57.46000 73.000
57.48000 95.000
57.50000 99.000
57.52000 97.000
57.54000 88.000
57.56000 100.000
57.58000 105.000
57.60000 100.000
57.62000 91.000
57.64000 86.000
57.66000 101.000
57.68000 95.000
57.70000 80.000
57.72000 85.000
57.74000 91.000
57.76000 93.000
57.78000 79.000
57.80000 95.000
57.82000 107.000
57.84000 80.000
57.86000 102.000
57.88000 99.000
57.90000 90.000
57.92000 90.000
57.94000 111.000
57.96000 74.000
57.98000 93.000
58.00000 81.000
58.02000 91.000
58.04000 73.000
58.06000 95.000
58.08000 100.000
58.10000 82.000
58.12000 98.000
58.14000 82.000
58.16000 70.000
58.18000 111.000
58.20000 88.000
58.22000 81.000
58.24000 88.000
58.26000 102.000
58.28000 99.000
58.30000 90.000
58.32000 102.000
58.34000 88.000
58.36000 91.000
58.38000 103.000
58.40000 97.000
58.42000 118.000
58.44000 120.000
58.46000 115.000
58.48000 130.000
58.50000 142.000
58.52000 144.000
58.54000 147.000
58.56000 150.000
58.58000 203.000
58.60000 217.000
58.62000 217.000
58.64000 221.000
58.66000 208.000
58.68000 228.000
58.70000 171.000
58.72000 192.000
58.74000 148.000
58.76000 161.000
58.78000 150.000
58.80000 147.000
58.82000 165.000
58.84000 132.000
58.86000 136.000
58.88000 118.000
58.90000 113.000
58.92000 132.000
58.94000 89.000
58.96000 114.000
58.98000 92.000
59.00000 103.000
59.02000 103.000
59.04000 94.000
59.06000 96.000
59.08000 86.000
59.10000 91.000
59.12000 90.000
59.14000 104.000
59.16000 95.000
59.18000 90.000
59.20000 110.000
59.22000 79.000
59.24000 86.000
59.26000 89.000
59.28000 106.000
59.30000 94.000
59.32000 104.000
59.34000 89.000
59.36000 109.000
59.38000 89.000
59.40000 101.000
59.42000 97.000
59.44000 93.000
59.46000 92.000
59.48000 98.000
59.50000 96.000
59.52000 96.000
59.54000 92.000
59.56000 82.000
59.58000 82.000
59.60000 98.000
59.62000 86.000
59.64000 89.000
59.66000 91.000
59.68000 94.000
59.70000 95.000
59.72000 77.000
59.74000 92.000
59.76000 102.000
59.78000 106.000
59.80000 85.000
59.82000 90.000
59.84000 95.000
59.86000 103.000
59.88000 104.000
59.90000 90.000
59.92000 103.000
59.94000 79.000
59.96000 100.000
