5.00000 789.000
5.02000 803.000
5.04000 838.000
5.06000 789.000
5.08000 806.000
5.10000 797.000
5.12000 766.000
5.14000 817.000
5.16000 781.000
5.18000 778.000
5.20000 798.000
5.22000 765.000
5.24000 765.000
5.26000 770.000
5.28000 729.000
5.30000 766.000
5.32000 753.000
5.34000 813.000
5.36000 763.000
5.38000 713.000
5.40000 782.000
5.42000 749.000
5.44000 729.000
5.46000 753.000
5.48000 779.000
5.50000 726.000
5.52000 727.000
5.54000 703.000
5.56000 758.000
5.58000 684.000
5.60000 702.000
5.62000 708.000
5.64000 660.000
5.66000 689.000
5.68000 649.000
5.70000 699.000
5.72000 684.000
5.74000 724.000
5.76000 706.000
5.78000 700.000
5.80000 649.000
5.82000 631.000
5.84000 698.000
5.86000 717.000
5.88000 669.000
5.90000 695.000
5.92000 660.000
5.94000 665.000
5.96000 662.000
5.98000 633.000
6.00000 686.000
6.02000 672.000
6.04000 662.000
6.06000 641.000
6.08000 609.000
6.10000 676.000
6.12000 621.000
6.14000 608.000
6.16000 686.000
6.18000 610.000
6.20000 603.000
6.22000 602.000
6.24000 636.000
6.26000 618.000
6.28000 646.000
6.30000 631.000
6.32000 620.000
6.34000 586.000
6.36000 624.000
6.38000 614.000
6.40000 593.000
6.42000 611.000
6.44000 605.000
6.46000 574.000
6.48000 573.000
6.50000 598.000
6.52000 618.000
6.54000 583.000
6.56000 606.000
6.58000 560.000
6.60000 629.000
6.62000 630.000
6.64000 589.000
6.66000 569.000
6.68000 589.000
6.70000 592.000
6.72000 560.000
6.74000 606.000
6.76000 604.000
6.78000 562.000
6.80000 593.000
6.82000 569.000
6.84000 548.000
6.86000 543.000
6.88000 593.000
6.90000 550.000
6.92000 588.000
6.94000 551.000
6.96000 537.000
6.98000 579.000
7.00000 546.000
7.02000 547.000
7.04000 548.000
7.06000 609.000
7.08000 584.000
7.10000 547.000
7.12000 543.000
7.14000 524.000
7.16000 584.000
7.18000 554.000
7.20000 541.000
7.22000 541.000
7.24000 529.000
7.26000 520.000
7.28000 540.000
7.30000 574.000
7.32000 529.000
7.34000 516.000
7.36000 533.000
7.38000 545.000
7.40000 549.000
7.42000 561.000
7.44000 489.000
7.46000 532.000
7.48000 507.000
7.50000 486.000
7.52000 507.000
7.54000 510.000
7.56000 508.000
7.58000 530.000
7.60000 489.000
7.62000 512.000
7.64000 523.000
7.66000 488.000
7.68000 512.000
7.70000 502.000
7.72000 523.000
7.74000 507.000
7.76000 503.000
7.78000 489.000
7.80000 489.000
7.82000 515.000
7.84000 488.000
7.86000 477.000
7.88000 531.000
7.90000 510.000
7.92000 461.000
7.94000 443.000
7.96000 515.000
7.98000 482.000
8.00000 480.000
8.02000 515.000
8.04000 451.000
8.06000 457.000
8.08000 490.000
8.10000 488.000
8.12000 466.000
8.14000 453.000
8.16000 448.000
8.18000 510.000
8.20000 531.000
8.22000 488.000
8.24000 441.000
8.26000 458.000
8.28000 528.000
8.30000 468.000
8.32000 475.000
8.34000 475.000
8.36000 476.000
8.38000 488.000
8.40000 470.000
8.42000 480.000
8.44000 481.000
8.46000 485.000
8.48000 456.000
8.50000 461.000
8.52000 464.000
8.54000 451.000
8.56000 464.000
8.58000 476.000
8.60000 484.000
8.62000 450.000
8.64000 484.000
8.66000 458.000
8.68000 426.000
8.70000 446.000
8.72000 455.000
8.74000 446.000
8.76000 484.000
8.78000 503.000
8.80000 515.000
8.82000 463.000
8.84000 498.000
8.86000 471.000
8.88000 488.000
8.90000 471.000
8.92000 431.000
8.94000 441.000
8.96000 442.000
8.98000 499.000
9.00000 451.000
9.02000 447.000
9.04000 436.000
9.06000 452.000
9.08000 428.000
9.10000 411.000
9.12000 452.000
9.14000 416.000
9.16000 408.000
9.18000 403.000
9.20000 413.000
9.22000 415.000
9.24000 432.000
9.26000 425.000
9.28000 415.000
9.30000 416.000
9.32000 428.000
9.34000 438.000
9.36000 392.000
9.38000 440.000
9.40000 423.000
9.42000 456.000
9.44000 392.000
9.46000 423.000
9.48000 395.000
9.50000 403.000
9.52000 433.000
9.54000 417.000
9.56000 414.000
9.58000 424.000
9.60000 416.000
9.62000 407.000
9.64000 396.000
9.66000 392.000
9.68000 421.000
9.70000 383.000
9.72000 417.000
9.74000 398.000
9.76000 430.000
9.78000 380.000
9.80000 389.000
9.82000 415.000
9.84000 399.000
9.86000 436.000
9.88000 428.000
9.90000 393.000
9.92000 458.000
9.94000 424.000
9.96000 423.000
9.98000 451.000
10.00000 457.000
10.02000 419.000
10.04000 441.000
10.06000 442.000
10.08000 435.000
10.10000 423.000
10.12000 393.000
10.14000 377.000
10.16000 373.000
10.18000 356.000
10.20000 364.000
10.22000 349.000
10.24000 338.000
10.26000 367.000
10.28000 363.000
10.30000 373.000
10.32000 369.000
10.34000 347.000
10.36000 381.000
10.38000 403.000
10.40000 334.000
10.42000 354.000
10.44000 383.000
10.46000 329.000
10.48000 365.000
10.50000 402.000
10.52000 364.000
10.54000 372.000
10.56000 367.000
10.58000 369.000
10.60000 350.000
10.62000 371.000
10.64000 341.000
10.66000 365.000
10.68000 363.000
10.70000 375.000
10.72000 379.000
10.74000 394.000
10.76000 346.000
10.78000 353.000
10.80000 355.000
10.82000 337.000
10.84000 349.000
10.86000 337.000
10.88000 319.000
10.90000 386.000
10.92000 353.000
10.94000 346.000
10.96000 366.000
10.98000 373.000
11.00000 396.000
11.02000 363.000
11.04000 350.000
11.06000 369.000
11.08000 332.000
11.10000 352.000
11.12000 341.000
11.14000 327.000
11.16000 344.000
11.18000 378.000
11.20000 323.000
11.22000 367.000
11.24000 325.000
11.26000 337.000
11.28000 370.000
11.30000 341.000
11.32000 335.000
11.34000 360.000
11.36000 389.000
11.38000 409.000
11.40000 375.000
11.42000 371.000
11.44000 382.000
11.46000 400.000
11.48000 343.000
11.50000 381.000
11.52000 410.000
11.54000 412.000
11.56000 406.000
11.58000 384.000
11.60000 419.000
11.62000 378.000
11.64000 362.000
11.66000 360.000
11.68000 399.000
11.70000 379.000
11.72000 362.000
11.74000 401.000
11.76000 403.000
11.78000 359.000
11.80000 369.000
11.82000 390.000
11.84000 394.000
11.86000 409.000
11.88000 403.000
11.90000 400.000
11.92000 416.000
11.94000 412.000
11.96000 402.000
11.98000 422.000
12.00000 383.000
12.02000 400.000
12.04000 445.000
12.06000 424.000
12.08000 417.000
12.10000 415.000
12.12000 472.000
12.14000 456.000
12.16000 461.000
12.18000 487.000
12.20000 484.000
12.22000 483.000
12.24000 475.000
12.26000 469.000
12.28000 489.000
12.30000 489.000
12.32000 460.000
12.34000 490.000
12.36000 518.000
12.38000 522.000
12.40000 510.000
12.42000 517.000
12.44000 529.000
12.46000 576.000
12.48000 588.000
12.50000 631.000
12.52000 628.000
12.54000 651.000
12.56000 718.000
12.58000 780.000
12.60000 817.000
12.62000 786.000
12.64000 822.000
12.66000 807.000
12.68000 721.000
12.70000 773.000
12.72000 698.000
12.74000 678.000
12.76000 613.000
12.78000 583.000
12.80000 530.000
12.82000 493.000
12.84000 483.000
12.86000 436.000
12.88000 460.000
12.90000 448.000
12.92000 401.000
12.94000 402.000
12.96000 415.000
12.98000 359.000
13.00000 364.000
13.02000 397.000
13.04000 394.000
13.06000 389.000
13.08000 426.000
13.10000 407.000
13.12000 430.000
13.14000 409.000
13.16000 384.000
13.18000 442.000
13.20000 437.000
13.22000 432.000
13.24000 459.000
13.26000 450.000
13.28000 442.000
13.30000 452.000
13.32000 490.000
13.34000 503.000
13.36000 530.000
13.38000 535.000
13.40000 545.000
13.42000 583.000
13.44000 569.000
13.46000 601.000
13.48000 642.000
13.50000 602.000
13.52000 699.000
13.54000 728.000
13.56000 748.000
13.58000 704.000
13.60000 771.000
13.62000 809.000
13.64000 850.000
13.66000 892.000
13.68000 967.000
13.70000 1008.000
13.72000 1063.000
13.74000 1077.000
13.76000 1255.000
13.78000 1314.000
13.80000 1463.000
13.82000 1540.000
13.84000 1585.000
13.86000 1745.000
13.88000 1962.000
13.90000 2086.000
13.92000 2254.000
13.94000 2488.000
13.96000 2788.000
13.98000 3093.000
14.00000 3271.000
14.02000 3610.000
14.04000 3928.000
14.06000 4047.000
14.08000 4040.000
14.10000 3756.000
14.12000 3238.000
14.14000 2746.000
14.16000 2199.000
14.18000 1785.000
14.20000 1419.000
14.22000 1175.000
14.24000 957.000
14.26000 813.000
14.28000 684.000
14.30000 642.000
14.32000 565.000
14.34000 510.000
14.36000 477.000
14.38000 421.000
14.40000 415.000
14.42000 402.000
14.44000 374.000
14.46000 380.000
14.48000 362.000
14.50000 334.000
14.52000 321.000
14.54000 303.000
14.56000 314.000
14.58000 336.000
14.60000 319.000
14.62000 295.000
14.64000 253.000
14.66000 314.000
14.68000 272.000
14.70000 290.000
14.72000 285.000
14.74000 302.000
14.76000 285.000
14.78000 264.000
14.80000 269.000
14.82000 284.000
14.84000 251.000
14.86000 273.000
14.88000 250.000
14.90000 228.000
14.92000 284.000
14.94000 269.000
14.96000 270.000
14.98000 294.000
15.00000 248.000
15.02000 271.000
15.04000 260.000
15.06000 245.000
15.08000 254.000
15.10000 278.000
15.12000 250.000
15.14000 227.000
15.16000 268.000
15.18000 254.000
15.20000 247.000
15.22000 237.000
15.24000 254.000
15.26000 245.000
15.28000 236.000
15.30000 214.000
15.32000 288.000
15.34000 250.000
15.36000 229.000
15.38000 241.000
15.40000 250.000
15.42000 215.000
15.44000 266.000
15.46000 264.000
15.48000 243.000
15.50000 257.000
15.52000 223.000
15.54000 263.000
15.56000 223.000
15.58000 213.000
15.60000 240.000
15.62000 272.000
15.64000 242.000
15.66000 230.000
15.68000 227.000
15.70000 239.000
15.72000 238.000
15.74000 236.000
15.76000 225.000
15.78000 237.000
15.80000 239.000
15.82000 250.000
15.84000 268.000
15.86000 257.000
15.88000 232.000
15.90000 224.000
15.92000 217.000
15.94000 239.000
15.96000 229.000
15.98000 220.000
16.00000 218.000
16.02000 242.000
16.04000 223.000
16.06000 261.000
16.08000 222.000
16.10000 236.000
16.12000 259.000
16.14000 261.000
16.16000 216.000
16.18000 240.000
16.20000 213.000
16.22000 208.000
16.24000 208.000
16.26000 217.000
16.28000 237.000
16.30000 261.000
16.32000 227.000
16.34000 234.000
16.36000 231.000
16.38000 245.000
16.40000 226.000
16.42000 218.000
16.44000 233.000
16.46000 235.000
16.48000 246.000
16.50000 215.000
16.52000 232.000
16.54000 216.000
16.56000 222.000
16.58000 247.000
16.60000 222.000
16.62000 261.000
16.64000 236.000
16.66000 224.000
16.68000 216.000
16.70000 204.000
16.72000 210.000
16.74000 217.000
16.76000 243.000
16.78000 209.000
16.80000 232.000
16.82000 232.000
16.84000 226.000
16.86000 208.000
16.88000 212.000
16.90000 231.000
16.92000 213.000
16.94000 194.000
16.96000 209.000
16.98000 219.000
17.00000 228.000
17.02000 233.000
17.04000 211.000
17.06000 219.000
17.08000 178.000
17.10000 244.000
17.12000 219.000
17.14000 210.000
17.16000 240.000
17.18000 225.000
17.20000 229.000
17.22000 200.000
17.24000 225.000
17.26000 216.000
17.28000 202.000
17.30000 221.000
17.32000 221.000
17.34000 203.000
17.36000 224.000
17.38000 205.000
17.40000 220.000
17.42000 237.000
17.44000 190.000
17.46000 222.000
17.48000 238.000
17.50000 234.000
17.52000 191.000
17.54000 242.000
17.56000 210.000
17.58000 196.000
17.60000 226.000
17.62000 218.000
17.64000 226.000
17.66000 216.000
17.68000 205.000
17.70000 216.000
17.72000 228.000
17.74000 223.000
17.76000 197.000
17.78000 203.000
17.80000 229.000
17.82000 212.000
17.84000 245.000
17.86000 250.000
17.88000 189.000
17.90000 210.000
17.92000 202.000
17.94000 218.000
17.96000 219.000
17.98000 215.000
18.00000 189.000
18.02000 212.000
18.04000 205.000
18.06000 218.000
18.08000 212.000
18.10000 224.000
18.12000 212.000
18.14000 204.000
18.16000 207.000
18.18000 197.000
18.20000 195.000
18.22000 235.000
18.24000 194.000
18.26000 226.000
18.28000 226.000
18.30000 188.000
18.32000 224.000
18.34000 201.000
18.36000 208.000
18.38000 234.000
18.40000 209.000
18.42000 244.000
18.44000 200.000
18.46000 198.000
18.48000 204.000
18.50000 226.000
18.52000 236.000
18.54000 215.000
18.56000 225.000
18.58000 211.000
18.60000 195.000
18.62000 229.000
18.64000 195.000
18.66000 185.000
18.68000 190.000
18.70000 212.000
18.72000 219.000
18.74000 199.000
18.76000 213.000
18.78000 213.000
18.80000 202.000
18.82000 216.000
18.84000 222.000
18.86000 223.000
18.88000 208.000
18.90000 195.000
18.92000 219.000
18.94000 201.000
18.96000 227.000
18.98000 231.000
19.00000 198.000
19.02000 199.000
19.04000 202.000
19.06000 203.000
19.08000 213.000
19.10000 230.000
19.12000 212.000
19.14000 208.000
19.16000 196.000
19.18000 231.000
19.20000 244.000
19.22000 223.000
19.24000 239.000
19.26000 210.000
19.28000 231.000
19.30000 240.000
19.32000 241.000
19.34000 259.000
19.36000 215.000
19.38000 275.000
19.40000 230.000
19.42000 263.000
19.44000 262.000
19.46000 192.000
19.48000 258.000
19.50000 255.000
19.52000 258.000
19.54000 249.000
19.56000 282.000
19.58000 274.000
19.60000 251.000
19.62000 284.000
19.64000 311.000
19.66000 274.000
19.68000 310.000
19.70000 322.000
19.72000 354.000
19.74000 329.000
19.76000 428.000
19.78000 453.000
19.80000 410.000
19.82000 472.000
19.84000 568.000
19.86000 570.000
19.88000 653.000
19.90000 723.000
19.92000 758.000
19.94000 774.000
19.96000 747.000
19.98000 677.000
20.00000 663.000
20.02000 593.000
20.04000 495.000
20.06000 448.000
20.08000 398.000
20.10000 350.000
20.12000 304.000
20.14000 260.000
20.16000 287.000
20.18000 286.000
20.20000 223.000
20.22000 219.000
20.24000 211.000
20.26000 213.000
20.28000 227.000
20.30000 212.000
20.32000 247.000
20.34000 222.000
20.36000 229.000
20.38000 212.000
20.40000 208.000
20.42000 216.000
20.44000 203.000
20.46000 245.000
20.48000 227.000
20.50000 210.000
20.52000 226.000
20.54000 204.000
20.56000 230.000
20.58000 265.000
20.60000 196.000
20.62000 236.000
20.64000 218.000
20.66000 211.000
20.68000 221.000
20.70000 216.000
20.72000 213.000
20.74000 226.000
20.76000 201.000
20.78000 193.000
20.80000 221.000
20.82000 176.000
20.84000 227.000
20.86000 201.000
20.88000 208.000
20.90000 225.000
20.92000 229.000
20.94000 229.000
20.96000 212.000
20.98000 209.000
21.00000 200.000
21.02000 234.000
21.04000 207.000
21.06000 198.000
21.08000 221.000
21.10000 198.000
21.12000 244.000
21.14000 238.000
21.16000 217.000
21.18000 210.000
21.20000 220.000
21.22000 232.000
21.24000 193.000
21.26000 223.000
21.28000 224.000
21.30000 236.000
21.32000 209.000
21.34000 217.000
21.36000 199.000
21.38000 208.000
21.40000 238.000
21.42000 220.000
21.44000 238.000
21.46000 203.000
21.48000 238.000
21.50000 214.000
21.52000 224.000
21.54000 205.000
21.56000 203.000
21.58000 217.000
21.60000 217.000
21.62000 210.000
21.64000 233.000
21.66000 224.000
21.68000 206.000
21.70000 179.000
21.72000 221.000
21.74000 211.000
21.76000 205.000
21.78000 206.000
21.80000 210.000
21.82000 226.000
21.84000 208.000
21.86000 209.000
21.88000 227.000
21.90000 210.000
21.92000 245.000
21.94000 195.000
21.96000 211.000
21.98000 217.000
22.00000 230.000
22.02000 230.000
22.04000 225.000
22.06000 225.000
22.08000 213.000
22.10000 224.000
22.12000 222.000
22.14000 226.000
22.16000 224.000
22.18000 233.000
22.20000 224.000
22.22000 214.000
22.24000 229.000
22.26000 200.000
22.28000 212.000
22.30000 223.000
22.32000 179.000
22.34000 252.000
22.36000 217.000
22.38000 228.000
22.40000 230.000
22.42000 226.000
22.44000 234.000
22.46000 212.000
22.48000 213.000
22.50000 252.000
22.52000 208.000
22.54000 220.000
22.56000 220.000
22.58000 225.000
22.60000 241.000
22.62000 225.000
22.64000 200.000
22.66000 233.000
22.68000 224.000
22.70000 237.000
22.72000 215.000
22.74000 221.000
22.76000 223.000
22.78000 228.000
22.80000 224.000
22.82000 215.000
22.84000 226.000
22.86000 204.000
22.88000 214.000
22.90000 234.000
22.92000 270.000
22.94000 225.000
22.96000 212.000
22.98000 228.000
23.00000 235.000
23.02000 221.000
23.04000 207.000
23.06000 201.000
23.08000 243.000
23.10000 233.000
23.12000 241.000
23.14000 239.000
23.16000 228.000
23.18000 227.000
23.20000 225.000
23.22000 258.000
23.24000 235.000
23.26000 226.000
23.28000 242.000
23.30000 206.000
23.32000 247.000
23.34000 221.000
23.36000 227.000
23.38000 247.000
23.40000 239.000
23.42000 255.000
23.44000 228.000
23.46000 253.000
23.48000 236.000
23.50000 230.000
23.52000 239.000
23.54000 234.000
23.56000 211.000
23.58000 225.000
23.60000 211.000
23.62000 245.000
23.64000 251.000
23.66000 239.000
23.68000 246.000
23.70000 240.000
23.72000 243.000
23.74000 249.000
23.76000 235.000
23.78000 271.000
23.80000 244.000
23.82000 235.000
23.84000 282.000
23.86000 266.000
23.88000 295.000
23.90000 289.000
23.92000 310.000
23.94000 303.000
23.96000 279.000
23.98000 296.000
24.00000 315.000
24.02000 338.000
24.04000 333.000
24.06000 353.000
24.08000 333.000
24.10000 306.000
24.12000 304.000
24.14000 316.000
24.16000 316.000
24.18000 361.000
24.20000 383.000
24.22000 412.000
24.24000 380.000
24.26000 423.000
24.28000 493.000
24.30000 500.000
24.32000 570.000
24.34000 654.000
24.36000 701.000
24.38000 766.000
24.40000 926.000
24.42000 1037.000
24.44000 1143.000
24.46000 1201.000
24.48000 1281.000
24.50000 1285.000
24.52000 1182.000
24.54000 1069.000
24.56000 1008.000
24.58000 780.000
24.60000 699.000
24.62000 561.000
24.64000 520.000
24.66000 465.000
24.68000 387.000
24.70000 355.000
24.72000 337.000
24.74000 287.000
24.76000 319.000
24.78000 292.000
24.80000 283.000
24.82000 277.000
24.84000 268.000
24.86000 278.000
24.88000 260.000
24.90000 252.000
24.92000 266.000
24.94000 256.000
24.96000 262.000
24.98000 261.000
25.00000 272.000
25.02000 257.000
25.04000 223.000
25.06000 251.000
25.08000 247.000
25.10000 248.000
25.12000 260.000
25.14000 250.000
25.16000 265.000
25.18000 261.000
25.20000 259.000
25.22000 227.000
25.24000 242.000
25.26000 238.000
25.28000 250.000
25.30000 244.000
25.32000 260.000
25.34000 227.000
25.36000 263.000
25.38000 235.000
25.40000 208.000
25.42000 235.000
25.44000 243.000
25.46000 277.000
25.48000 239.000
25.50000 260.000
25.52000 257.000
25.54000 271.000
25.56000 243.000
25.58000 275.000
25.60000 259.000
25.62000 250.000
25.64000 215.000
25.66000 249.000
25.68000 223.000
25.70000 234.000
25.72000 258.000
25.74000 248.000
25.76000 255.000
25.78000 246.000
25.80000 252.000
25.82000 232.000
25.84000 239.000
25.86000 245.000
25.88000 228.000
25.90000 271.000
25.92000 271.000
25.94000 222.000
25.96000 259.000
25.98000 248.000
26.00000 264.000
26.02000 281.000
26.04000 252.000
26.06000 244.000
26.08000 268.000
26.10000 250.000
26.12000 266.000
26.14000 264.000
26.16000 232.000
26.18000 279.000
26.20000 258.000
26.22000 241.000
26.24000 275.000
26.26000 246.000
26.28000 290.000
26.30000 293.000
26.32000 250.000
26.34000 238.000
26.36000 225.000
26.38000 250.000
26.40000 283.000
26.42000 230.000
26.44000 246.000
26.46000 221.000
26.48000 223.000
26.50000 248.000
26.52000 257.000
26.54000 239.000
26.56000 238.000
26.58000 264.000
26.60000 241.000
26.62000 276.000
26.64000 293.000
26.66000 265.000
26.68000 277.000
26.70000 269.000
26.72000 301.000
26.74000 295.000
26.76000 280.000
26.78000 276.000
26.80000 298.000
26.82000 277.000
26.84000 297.000
26.86000 287.000
26.88000 270.000
26.90000 274.000
26.92000 270.000
26.94000 294.000
26.96000 267.000
26.98000 253.000
27.00000 245.000
27.02000 315.000
27.04000 300.000
27.06000 290.000
27.08000 294.000
27.10000 291.000
27.12000 285.000
27.14000 288.000
27.16000 289.000
27.18000 309.000
27.20000 285.000
27.22000 263.000
27.24000 276.000
27.26000 262.000
27.28000 267.000
27.30000 285.000
27.32000 293.000
27.34000 285.000
27.36000 287.000
27.38000 270.000
27.40000 315.000
27.42000 264.000
27.44000 275.000
27.46000 261.000
27.48000 306.000
27.50000 299.000
27.52000 294.000
27.54000 307.000
27.56000 292.000
27.58000 300.000
27.60000 319.000
27.62000 323.000
27.64000 307.000
27.66000 294.000
27.68000 305.000
27.70000 317.000
27.72000 325.000
27.74000 311.000
27.76000 337.000
27.78000 335.000
27.80000 332.000
27.82000 362.000
27.84000 383.000
27.86000 353.000
27.88000 387.000
27.90000 409.000
27.92000 436.000
27.94000 464.000
27.96000 498.000
27.98000 557.000
28.00000 567.000
28.02000 629.000
28.04000 668.000
28.06000 805.000
28.08000 874.000
28.10000 908.000
28.12000 1036.000
28.14000 1131.000
28.16000 1329.000
28.18000 1536.000
28.20000 1712.000
28.22000 1996.000
28.24000 2227.000
28.26000 2647.000
28.28000 2915.000
28.30000 3273.000
28.32000 3542.000
28.34000 3535.000
28.36000 3602.000
28.38000 3404.000
28.40000 3111.000
28.42000 2625.000
28.44000 2230.000
28.46000 1940.000
28.48000 1572.000
28.50000 1260.000
28.52000 1043.000
28.54000 919.000
28.56000 729.000
28.58000 632.000
28.60000 570.000
28.62000 510.000
28.64000 460.000
28.66000 402.000
28.68000 371.000
28.70000 381.000
28.72000 359.000
28.74000 333.000
28.76000 328.000
28.78000 295.000
28.80000 315.000
28.82000 314.000
28.84000 289.000
28.86000 299.000
28.88000 293.000
28.90000 291.000
28.92000 254.000
28.94000 245.000
28.96000 284.000
28.98000 269.000
29.00000 250.000
29.02000 254.000
29.04000 288.000
29.06000 273.000
29.08000 242.000
29.10000 287.000
29.12000 226.000
29.14000 230.000
29.16000 259.000
29.18000 256.000
29.20000 232.000
29.22000 248.000
29.24000 249.000
29.26000 229.000
29.28000 234.000
29.30000 218.000
29.32000 249.000
29.34000 246.000
29.36000 205.000
29.38000 229.000
29.40000 244.000
29.42000 229.000
29.44000 245.000
29.46000 219.000
29.48000 244.000
29.50000 240.000
29.52000 213.000
29.54000 236.000
29.56000 249.000
29.58000 214.000
29.60000 216.000
29.62000 234.000
29.64000 223.000
29.66000 221.000
29.68000 222.000
29.70000 219.000
29.72000 229.000
29.74000 222.000
29.76000 260.000
29.78000 202.000
29.80000 242.000
29.82000 221.000
29.84000 229.000
29.86000 224.000
29.88000 202.000
29.90000 218.000
29.92000 227.000
29.94000 242.000
29.96000 229.000
29.98000 222.000
30.00000 218.000
30.02000 211.000
30.04000 212.000
30.06000 237.000
30.08000 223.000
30.10000 244.000
30.12000 217.000
30.14000 250.000
30.16000 232.000
30.18000 234.000
30.20000 249.000
30.22000 236.000
30.24000 235.000
30.26000 217.000
30.28000 233.000
30.30000 223.000
30.32000 266.000
30.34000 247.000
30.36000 233.000
30.38000 253.000
30.40000 257.000
30.42000 250.000
30.44000 254.000
30.46000 252.000
30.48000 221.000
30.50000 225.000
30.52000 257.000
30.54000 209.000
30.56000 214.000
30.58000 213.000
30.60000 258.000
30.62000 259.000
30.64000 244.000
30.66000 242.000
30.68000 260.000
30.70000 263.000
30.72000 249.000
30.74000 243.000
30.76000 243.000
30.78000 226.000
30.80000 219.000
30.82000 259.000
30.84000 235.000
30.86000 272.000
30.88000 255.000
30.90000 261.000
30.92000 247.000
30.94000 231.000
30.96000 268.000
30.98000 275.000
31.00000 267.000
31.02000 259.000
31.04000 277.000
31.06000 282.000
31.08000 255.000
31.10000 274.000
31.12000 281.000
31.14000 278.000
31.16000 296.000
31.18000 265.000
31.20000 279.000
31.22000 280.000
31.24000 297.000
31.26000 313.000
31.28000 355.000
31.30000 361.000
31.32000 359.000
31.34000 346.000
31.36000 348.000
31.38000 372.000
31.40000 413.000
31.42000 491.000
31.44000 494.000
31.46000 561.000
31.48000 564.000
31.50000 673.000
31.52000 738.000
31.54000 861.000
31.56000 956.000
31.58000 1059.000
31.60000 1219.000
31.62000 1477.000
31.64000 1639.000
31.66000 1913.000
31.68000 2156.000
31.70000 2451.000
31.72000 2823.000
31.74000 3176.000
31.76000 3315.000
31.78000 3325.000
31.80000 3124.000
31.82000 2756.000
31.84000 2487.000
31.86000 2153.000
31.88000 1835.000
31.90000 1523.000
31.92000 1182.000
31.94000 957.000
31.96000 802.000
31.98000 696.000
32.00000 551.000
32.02000 510.000
32.04000 408.000
32.06000 400.000
32.08000 378.000
32.10000 322.000
32.12000 313.000
32.14000 322.000
32.16000 282.000
32.18000 259.000
32.20000 235.000
32.22000 252.000
32.24000 240.000
32.26000 274.000
32.28000 228.000
32.30000 225.000
32.32000 229.000
32.34000 248.000
32.36000 223.000
32.38000 226.000
32.40000 216.000
32.42000 198.000
32.44000 212.000
32.46000 229.000
32.48000 216.000
32.50000 218.000
32.52000 231.000
32.54000 227.000
32.56000 221.000
32.58000 189.000
32.60000 220.000
32.62000 187.000
32.64000 218.000
32.66000 226.000
32.68000 214.000
32.70000 190.000
32.72000 219.000
32.74000 191.000
32.76000 199.000
32.78000 200.000
32.80000 183.000
32.82000 192.000
32.84000 188.000
32.86000 208.000
32.88000 173.000
32.90000 170.000
32.92000 196.000
32.94000 189.000
32.96000 201.000
32.98000 194.000
33.00000 170.000
33.02000 179.000
33.04000 174.000
33.06000 191.000
33.08000 178.000
33.10000 170.000
33.12000 194.000
33.14000 184.000
33.16000 178.000
33.18000 208.000
33.20000 207.000
33.22000 209.000
33.24000 180.000
33.26000 192.000
33.28000 170.000
33.30000 202.000
33.32000 186.000
33.34000 193.000
33.36000 186.000
33.38000 175.000
33.40000 198.000
33.42000 182.000
33.44000 177.000
33.46000 185.000
33.48000 181.000
33.50000 175.000
33.52000 179.000
33.54000 185.000
33.56000 180.000
33.58000 165.000
33.60000 155.000
33.62000 179.000
33.64000 191.000
33.66000 186.000
33.68000 181.000
33.70000 165.000
33.72000 203.000
33.74000 186.000
33.76000 181.000
33.78000 201.000
33.80000 160.000
33.82000 174.000
33.84000 172.000
33.86000 179.000
33.88000 178.000
33.90000 175.000
33.92000 177.000
33.94000 155.000
33.96000 171.000
33.98000 181.000
34.00000 187.000
34.02000 156.000
34.04000 168.000
34.06000 192.000
34.08000 182.000
34.10000 183.000
34.12000 181.000
34.14000 181.000
34.16000 165.000
34.18000 142.000
34.20000 189.000
34.22000 148.000
34.24000 172.000
34.26000 164.000
34.28000 184.000
34.30000 167.000
34.32000 186.000
34.34000 184.000
34.36000 186.000
34.38000 183.000
34.40000 186.000
34.42000 210.000
34.44000 164.000
34.46000 179.000
34.48000 187.000
34.50000 205.000
34.52000 192.000
34.54000 194.000
34.56000 185.000
34.58000 203.000
34.60000 222.000
34.62000 212.000
34.64000 232.000
34.66000 270.000
34.68000 252.000
34.70000 243.000
34.72000 289.000
34.74000 329.000
34.76000 344.000
34.78000 406.000
34.80000 401.000
34.82000 471.000
34.84000 530.000
34.86000 570.000
34.88000 574.000
34.90000 572.000
34.92000 606.000
34.94000 580.000
34.96000 512.000
34.98000 465.000
35.00000 417.000
35.02000 384.000
35.04000 323.000
35.06000 322.000
35.08000 283.000
35.10000 268.000
35.12000 242.000
35.14000 227.000
35.16000 226.000
35.18000 217.000
35.20000 197.000
35.22000 174.000
35.24000 186.000
35.26000 172.000
35.28000 189.000
35.30000 191.000
35.32000 193.000
35.34000 165.000
35.36000 176.000
35.38000 182.000
35.40000 167.000
35.42000 178.000
35.44000 192.000
35.46000 172.000
35.48000 179.000
35.50000 172.000
35.52000 161.000
35.54000 163.000
35.56000 169.000
35.58000 161.000
35.60000 146.000
35.62000 192.000
35.64000 172.000
35.66000 181.000
35.68000 147.000
35.70000 162.000
35.72000 175.000
35.74000 162.000
35.76000 153.000
35.78000 168.000
35.80000 175.000
35.82000 168.000
35.84000 150.000
35.86000 165.000
35.88000 190.000
35.90000 157.000
35.92000 161.000
35.94000 164.000
35.96000 180.000
35.98000 166.000
36.00000 172.000
36.02000 180.000
36.04000 164.000
36.06000 178.000
36.08000 182.000
36.10000 162.000
36.12000 171.000
36.14000 163.000
36.16000 155.000
36.18000 157.000
36.20000 176.000
36.22000 150.000
36.24000 161.000
36.26000 170.000
36.28000 179.000
36.30000 164.000
36.32000 184.000
36.34000 164.000
36.36000 165.000
36.38000 176.000
36.40000 156.000
36.42000 169.000
36.44000 156.000
36.46000 180.000
36.48000 165.000
36.50000 153.000
36.52000 195.000
36.54000 132.000
36.56000 158.000
36.58000 165.000
36.60000 176.000
36.62000 170.000
36.64000 157.000
36.66000 163.000
36.68000 155.000
36.70000 152.000
36.72000 159.000
36.74000 152.000
36.76000 158.000
36.78000 168.000
36.80000 156.000
36.82000 165.000
36.84000 163.000
36.86000 165.000
36.88000 145.000
36.90000 161.000
36.92000 159.000
36.94000 145.000
36.96000 153.000
36.98000 149.000
37.00000 140.000
37.02000 149.000
37.04000 154.000
37.06000 188.000
37.08000 168.000
37.10000 174.000
37.12000 160.000
37.14000 163.000
37.16000 136.000
37.18000 147.000
37.20000 150.000
37.22000 159.000
37.24000 161.000
37.26000 161.000
37.28000 151.000
37.30000 146.000
37.32000 177.000
37.34000 180.000
37.36000 157.000
37.38000 161.000
37.40000 150.000
37.42000 168.000
37.44000 175.000
37.46000 155.000
37.48000 171.000
37.50000 171.000
37.52000 145.000
37.54000 171.000
37.56000 168.000
37.58000 180.000
37.60000 145.000
37.62000 157.000
37.64000 153.000
37.66000 167.000
37.68000 151.000
37.70000 153.000
37.72000 152.000
37.74000 172.000
37.76000 148.000
37.78000 172.000
37.80000 173.000
37.82000 167.000
37.84000 154.000
37.86000 160.000
37.88000 133.000
37.90000 153.000
37.92000 141.000
37.94000 144.000
37.96000 165.000
37.98000 141.000
38.00000 152.000
38.02000 170.000
38.04000 150.000
38.06000 149.000
38.08000 169.000
38.10000 152.000
38.12000 159.000
38.14000 166.000
38.16000 176.000
38.18000 176.000
38.20000 163.000
38.22000 187.000
38.24000 184.000
38.26000 167.000
38.28000 188.000
38.30000 152.000
38.32000 172.000
38.34000 167.000
38.36000 202.000
38.38000 197.000
38.40000 177.000
38.42000 188.000
38.44000 154.000
38.46000 189.000
38.48000 150.000
38.50000 179.000
38.52000 200.000
38.54000 194.000
38.56000 209.000
38.58000 163.000
38.60000 189.000
38.62000 205.000
38.64000 182.000
38.66000 161.000
38.68000 203.000
38.70000 186.000
38.72000 181.000
38.74000 187.000
38.76000 211.000
38.78000 173.000
38.80000 194.000
38.82000 176.000
38.84000 165.000
38.86000 197.000
38.88000 183.000
38.90000 195.000
38.92000 155.000
38.94000 184.000
38.96000 164.000
38.98000 174.000
39.00000 180.000
39.02000 180.000
39.04000 160.000
39.06000 169.000
39.08000 154.000
39.10000 171.000
39.12000 176.000
39.14000 164.000
39.16000 180.000
39.18000 174.000
39.20000 177.000
39.22000 171.000
39.24000 156.000
39.26000 175.000
39.28000 178.000
39.30000 171.000
39.32000 180.000
39.34000 180.000
39.36000 172.000
39.38000 192.000
39.40000 184.000
39.42000 177.000
39.44000 159.000
39.46000 184.000
39.48000 164.000
39.50000 177.000
39.52000 153.000
39.54000 195.000
39.56000 189.000
39.58000 163.000
39.60000 180.000
39.62000 173.000
39.64000 185.000
39.66000 181.000
39.68000 176.000
39.70000 171.000
39.72000 182.000
39.74000 190.000
39.76000 180.000
39.78000 188.000
39.80000 165.000
39.82000 200.000
39.84000 207.000
39.86000 208.000
39.88000 205.000
39.90000 191.000
39.92000 194.000
39.94000 188.000
39.96000 203.000
39.98000 191.000
40.00000 188.000
40.02000 195.000
40.04000 230.000
40.06000 204.000
40.08000 213.000
40.10000 220.000
40.12000 231.000
40.14000 244.000
40.16000 256.000
40.18000 250.000
40.20000 274.000
40.22000 278.000
40.24000 341.000
40.26000 376.000
40.28000 394.000
40.30000 479.000
40.32000 480.000
40.34000 611.000
40.36000 674.000
40.38000 806.000
40.40000 917.000
40.42000 1069.000
40.44000 1298.000
40.46000 1549.000
40.48000 1571.000
40.50000 1717.000
40.52000 1669.000
40.54000 1700.000
40.56000 1558.000
40.58000 1448.000
40.60000 1273.000
40.62000 1184.000
40.64000 986.000
40.66000 902.000
40.68000 714.000
40.70000 627.000
40.72000 535.000
40.74000 499.000
40.76000 436.000
40.78000 410.000
40.80000 351.000
40.82000 317.000
40.84000 330.000
40.86000 282.000
40.88000 287.000
40.90000 266.000
40.92000 243.000
40.94000 235.000
40.96000 247.000
40.98000 243.000
41.00000 221.000
41.02000 232.000
41.04000 227.000
41.06000 231.000
41.08000 193.000
41.10000 229.000
41.12000 224.000
41.14000 213.000
41.16000 220.000
41.18000 187.000
41.20000 209.000
41.22000 196.000
41.24000 215.000
41.26000 194.000
41.28000 194.000
41.30000 190.000
41.32000 180.000
41.34000 158.000
41.36000 182.000
41.38000 205.000
41.40000 186.000
41.42000 163.000
41.44000 219.000
41.46000 187.000
41.48000 178.000
41.50000 191.000
41.52000 157.000
41.54000 197.000
41.56000 178.000
41.58000 198.000
41.60000 190.000
41.62000 186.000
41.64000 181.000
41.66000 172.000
41.68000 173.000
41.70000 204.000
41.72000 186.000
41.74000 198.000
41.76000 216.000
41.78000 169.000
41.80000 183.000
41.82000 185.000
41.84000 208.000
41.86000 189.000
41.88000 180.000
41.90000 207.000
41.92000 195.000
41.94000 164.000
41.96000 194.000
41.98000 194.000
42.00000 199.000
42.02000 189.000
42.04000 181.000
42.06000 207.000
42.08000 164.000
42.10000 181.000
42.12000 155.000
42.14000 185.000
42.16000 185.000
42.18000 195.000
42.20000 213.000
42.22000 234.000
42.24000 179.000
42.26000 169.000
42.28000 189.000
42.30000 184.000
42.32000 181.000
42.34000 201.000
42.36000 224.000
42.38000 201.000
42.40000 179.000
42.42000 196.000
42.44000 201.000
42.46000 191.000
42.48000 188.000
42.50000 201.000
42.52000 190.000
42.54000 215.000
42.56000 194.000
42.58000 218.000
42.60000 221.000
42.62000 208.000
42.64000 238.000
42.66000 209.000
42.68000 249.000
42.70000 212.000
42.72000 240.000
42.74000 242.000
42.76000 283.000
42.78000 292.000
42.80000 336.000
42.82000 349.000
42.84000 367.000
42.86000 441.000
42.88000 490.000
42.90000 534.000
42.92000 620.000
42.94000 754.000
42.96000 839.000
42.98000 982.000
43.00000 1150.000
43.02000 1367.000
43.04000 1461.000
43.06000 1535.000
43.08000 1509.000
43.10000 1660.000
43.12000 1498.000
43.14000 1409.000
43.16000 1275.000
43.18000 1237.000
43.20000 1071.000
43.22000 978.000
43.24000 798.000
43.26000 683.000
43.28000 598.000
43.30000 494.000
43.32000 414.000
43.34000 378.000
43.36000 344.000
43.38000 308.000
43.40000 284.000
43.42000 298.000
43.44000 260.000
43.46000 245.000
43.48000 245.000
43.50000 217.000
43.52000 216.000
43.54000 218.000
43.56000 201.000
43.58000 192.000
43.60000 200.000
43.62000 189.000
43.64000 206.000
43.66000 181.000
43.68000 171.000
43.70000 191.000
43.72000 171.000
43.74000 175.000
43.76000 168.000
43.78000 191.000
43.80000 190.000
43.82000 199.000
43.84000 163.000
43.86000 174.000
43.88000 163.000
43.90000 155.000
43.92000 176.000
43.94000 173.000
43.96000 181.000
43.98000 149.000
44.00000 185.000
44.02000 177.000
44.04000 176.000
44.06000 174.000
44.08000 183.000
44.10000 175.000
44.12000 170.000
44.14000 172.000
44.16000 151.000
44.18000 197.000
44.20000 162.000
44.22000 157.000
44.24000 143.000
44.26000 178.000
44.28000 176.000
44.30000 152.000
44.32000 164.000
44.34000 150.000
44.36000 174.000
44.38000 160.000
44.40000 151.000
44.42000 154.000
44.44000 142.000
44.46000 158.000
44.48000 150.000
44.50000 161.000
44.52000 173.000
44.54000 164.000
44.56000 169.000
44.58000 175.000
44.60000 148.000
44.62000 155.000
44.64000 158.000
44.66000 153.000
44.68000 155.000
44.70000 145.000
44.72000 156.000
44.74000 151.000
44.76000 180.000
44.78000 155.000
44.80000 150.000
44.82000 175.000
44.84000 158.000
44.86000 157.000
44.88000 138.000
44.90000 135.000
44.92000 144.000
44.94000 164.000
44.96000 169.000
44.98000 155.000
45.00000 159.000
45.02000 162.000
45.04000 140.000
45.06000 161.000
45.08000 142.000
45.10000 149.000
45.12000 133.000
45.14000 152.000
45.16000 162.000
45.18000 167.000
45.20000 125.000
45.22000 154.000
45.24000 154.000
45.26000 157.000
45.28000 141.000
45.30000 171.000
45.32000 157.000
45.34000 161.000
45.36000 186.000
45.38000 177.000
45.40000 166.000
45.42000 201.000
45.44000 174.000
45.46000 174.000
45.48000 193.000
45.50000 188.000
45.52000 202.000
45.54000 209.000
45.56000 203.000
45.58000 198.000
45.60000 191.000
45.62000 203.000
45.64000 208.000
45.66000 201.000
45.68000 183.000
45.70000 172.000
45.72000 170.000
45.74000 141.000
45.76000 167.000
45.78000 166.000
45.80000 166.000
45.82000 139.000
45.84000 136.000
45.86000 148.000
45.88000 121.000
45.90000 113.000
45.92000 146.000
45.94000 121.000
45.96000 139.000
45.98000 139.000
46.00000 159.000
46.02000 149.000
46.04000 155.000
46.06000 116.000
46.08000 119.000
46.10000 143.000
46.12000 134.000
46.14000 139.000
46.16000 143.000
46.18000 124.000
46.20000 116.000
46.22000 130.000
46.24000 152.000
46.26000 132.000
46.28000 129.000
46.30000 143.000
46.32000 129.000
46.34000 118.000
46.36000 123.000
46.38000 115.000
46.40000 94.000
46.42000 149.000
46.44000 147.000
46.46000 129.000
46.48000 122.000
46.50000 133.000
46.52000 123.000
46.54000 131.000
46.56000 137.000
46.58000 139.000
46.60000 126.000
46.62000 149.000
46.64000 132.000
46.66000 123.000
46.68000 142.000
46.70000 143.000
46.72000 137.000
46.74000 122.000
46.76000 151.000
46.78000 113.000
46.80000 142.000
46.82000 115.000
46.84000 121.000
46.86000 129.000
46.88000 131.000
46.90000 124.000
46.92000 123.000
46.94000 125.000
46.96000 122.000
46.98000 121.000
47.00000 126.000
47.02000 152.000
47.04000 128.000
47.06000 133.000
47.08000 131.000
47.10000 118.000
47.12000 125.000
47.14000 133.000
47.16000 140.000
47.18000 123.000
47.20000 126.000
47.22000 135.000
47.24000 135.000
47.26000 138.000
47.28000 134.000
47.30000 136.000
47.32000 117.000
47.34000 135.000
47.36000 118.000
47.38000 125.000
47.40000 129.000
47.42000 131.000
47.44000 127.000
47.46000 145.000
47.48000 130.000
47.50000 114.000
47.52000 144.000
47.54000 115.000
47.56000 134.000
47.58000 124.000
47.60000 129.000
47.62000 127.000
47.64000 156.000
47.66000 133.000
47.68000 126.000
47.70000 164.000
47.72000 142.000
47.74000 131.000
47.76000 148.000
47.78000 157.000
47.80000 144.000
47.82000 140.000
47.84000 172.000
47.86000 164.000
47.88000 176.000
47.90000 177.000
47.92000 175.000
47.94000 165.000
47.96000 164.000
47.98000 149.000
48.00000 153.000
48.02000 141.000
48.04000 123.000
48.06000 144.000
48.08000 127.000
48.10000 120.000
48.12000 135.000
48.14000 139.000
48.16000 126.000
48.18000 117.000
48.20000 130.000
48.22000 132.000
48.24000 107.000
48.26000 128.000
48.28000 139.000
48.30000 120.000
48.32000 119.000
48.34000 118.000
48.36000 123.000
48.38000 118.000
48.40000 118.000
48.42000 129.000
48.44000 125.000
48.46000 113.000
48.48000 127.000
48.50000 134.000
48.52000 139.000
48.54000 117.000
48.56000 105.000
48.58000 146.000
48.60000 119.000
48.62000 115.000
48.64000 135.000
48.66000 104.000
48.68000 119.000
48.70000 105.000
48.72000 98.000
48.74000 109.000
48.76000 130.000
48.78000 132.000
48.80000 127.000
48.82000 116.000
48.84000 107.000
48.86000 143.000
48.88000 152.000
48.90000 129.000
48.92000 117.000
48.94000 125.000
48.96000 121.000
48.98000 118.000
49.00000 125.000
49.02000 136.000
49.04000 120.000
49.06000 112.000
49.08000 115.000
49.10000 124.000
49.12000 133.000
49.14000 133.000
49.16000 139.000
49.18000 141.000
49.20000 134.000
49.22000 131.000
49.24000 133.000
49.26000 113.000
49.28000 117.000
49.30000 137.000
49.32000 129.000
49.34000 127.000
49.36000 115.000
49.38000 155.000
49.40000 117.000
49.42000 125.000
49.44000 111.000
49.46000 106.000
49.48000 150.000
49.50000 117.000
49.52000 134.000
49.54000 117.000
49.56000 142.000
49.58000 127.000
49.60000 123.000
49.62000 129.000
49.64000 133.000
49.66000 135.000
49.68000 159.000
49.70000 114.000
49.72000 134.000
49.74000 148.000
49.76000 126.000
49.78000 133.000
49.80000 142.000
49.82000 149.000
49.84000 166.000
49.86000 159.000
49.88000 166.000
49.90000 148.000
49.92000 202.000
49.94000 176.000
49.96000 187.000
49.98000 224.000
50.00000 234.000
50.02000 260.000
50.04000 277.000
50.06000 353.000
50.08000 376.000
50.10000 407.000
50.12000 486.000
50.14000 490.000
50.16000 519.000
50.18000 480.000
50.20000 485.000
50.22000 412.000
50.24000 412.000
50.26000 402.000
50.28000 370.000
50.30000 356.000
50.32000 333.000
50.34000 294.000
50.36000 305.000
50.38000 215.000
50.40000 182.000
50.42000 226.000
50.44000 151.000
50.46000 161.000
50.48000 181.000
50.50000 170.000
50.52000 118.000
50.54000 147.000
50.56000 129.000
50.58000 124.000
50.60000 128.000
50.62000 134.000
50.64000 124.000
50.66000 138.000
50.68000 119.000
50.70000 124.000
50.72000 146.000
50.74000 133.000
50.76000 135.000
50.78000 117.000
50.80000 118.000
50.82000 119.000
50.84000 124.000
50.86000 117.000
50.88000 117.000
50.90000 110.000
50.92000 120.000
50.94000 137.000
50.96000 122.000
50.98000 133.000
51.00000 110.000
51.02000 104.000
51.04000 156.000
51.06000 135.000
51.08000 116.000
51.10000 146.000
51.12000 104.000
51.14000 141.000
51.16000 106.000
51.18000 110.000
51.20000 102.000
51.22000 117.000
51.24000 119.000
51.26000 97.000
51.28000 110.000
51.30000 121.000
51.32000 93.000
51.34000 110.000
51.36000 107.000
51.38000 102.000
51.40000 114.000
51.42000 115.000
51.44000 111.000
51.46000 124.000
51.48000 120.000
51.50000 132.000
51.52000 142.000
51.54000 90.000
51.56000 110.000
51.58000 108.000
51.60000 147.000
51.62000 117.000
51.64000 126.000
51.66000 107.000
51.68000 136.000
51.70000 113.000
51.72000 127.000
51.74000 133.000
51.76000 122.000
51.78000 91.000
51.80000 121.000
51.82000 112.000
51.84000 120.000
51.86000 119.000
51.88000 119.000
51.90000 139.000
51.92000 112.000
51.94000 138.000
51.96000 112.000
51.98000 128.000
52.00000 121.000
52.02000 130.000
52.04000 136.000
52.06000 129.000
52.08000 154.000
52.10000 165.000
52.12000 146.000
52.14000 153.000
52.16000 188.000
52.18000 169.000
52.20000 203.000
52.22000 204.000
52.24000 261.000
52.26000 294.000
52.28000 330.000
52.30000 383.000
52.32000 381.000
52.34000 401.000
52.36000 421.000
52.38000 397.000
52.40000 438.000
52.42000 368.000
52.44000 377.000
52.46000 343.000
52.48000 312.000
52.50000 317.000
52.52000 278.000
52.54000 299.000
52.56000 218.000
52.58000 197.000
52.60000 183.000
52.62000 188.000
52.64000 183.000
52.66000 159.000
52.68000 142.000
52.70000 129.000
52.72000 141.000
52.74000 112.000
52.76000 139.000
52.78000 136.000
52.80000 132.000
52.82000 125.000
52.84000 122.000
52.86000 117.000
52.88000 102.000
52.90000 100.000
52.92000 136.000
52.94000 105.000
52.96000 109.000
52.98000 101.000
53.00000 113.000
53.02000 106.000
53.04000 111.000
53.06000 109.000
53.08000 112.000
53.10000 105.000
53.12000 100.000
53.14000 100.000
53.16000 127.000
53.18000 113.000
53.20000 105.000
53.22000 83.000
53.24000 92.000
53.26000 116.000
53.28000 100.000
53.30000 120.000
53.32000 113.000
53.34000 105.000
53.36000 91.000
53.38000 116.000
53.40000 115.000
53.42000 100.000
53.44000 103.000
53.46000 115.000
53.48000 91.000
53.50000 106.000
53.52000 101.000
53.54000 109.000
53.56000 103.000
53.58000 94.000
53.60000 94.000
53.62000 101.000
53.64000 109.000
53.66000 88.000
53.68000 105.000
53.70000 105.000
53.72000 99.000
53.74000 107.000
53.76000 110.000
53.78000 111.000
53.80000 100.000
53.82000 96.000
53.84000 114.000
53.86000 99.000
53.88000 93.000
53.90000 112.000
53.92000 119.000
53.94000 118.000
53.96000 115.000
53.98000 85.000
54.00000 89.000
54.02000 111.000
54.04000 78.000
54.06000 113.000
54.08000 103.000
54.10000 94.000
54.12000 122.000
54.14000 108.000
54.16000 99.000
54.18000 110.000
54.20000 97.000
54.22000 107.000
54.24000 117.000
54.26000 97.000
54.28000 97.000
54.30000 103.000
54.32000 121.000
54.34000 134.000
54.36000 134.000
54.38000 149.000
54.40000 151.000
54.42000 148.000
54.44000 171.000
54.46000 184.000
54.48000 175.000
54.50000 185.000
54.52000 190.000
54.54000 169.000
54.56000 181.000
54.58000 151.000
54.60000 154.000
54.62000 131.000
54.64000 145.000
54.66000 134.000
54.68000 143.000
54.70000 126.000
54.72000 124.000
54.74000 131.000
54.76000 113.000
54.78000 129.000
54.80000 114.000
54.82000 114.000
54.84000 73.000
54.86000 92.000
54.88000 99.000
54.90000 125.000
54.92000 97.000
54.94000 86.000
54.96000 98.000
54.98000 91.000
55.00000 100.000
55.02000 102.000
55.04000 109.000
55.06000 100.000
55.08000 121.000
55.10000 94.000
55.12000 99.000
55.14000 85.000
55.16000 94.000
55.18000 98.000
55.20000 98.000
55.22000 107.000
55.24000 106.000
55.26000 91.000
55.28000 93.000
55.30000 94.000
55.32000 98.000
55.34000 83.000
55.36000 101.000
55.38000 110.000
55.40000 94.000
55.42000 87.000
55.44000 88.000
55.46000 106.000
55.48000 106.000
55.50000 94.000
55.52000 100.000
55.54000 94.000
55.56000 90.000
55.58000 86.000
55.60000 76.000
55.62000 75.000
55.64000 99.000
55.66000 86.000
55.68000 103.000
55.70000 95.000
55.72000 102.000
55.74000 97.000
55.76000 92.000
55.78000 98.000
55.80000 80.000
55.82000 96.000
55.84000 88.000
55.86000 88.000
55.88000 97.000
55.90000 102.000
55.92000 91.000
55.94000 93.000
55.96000 113.000
55.98000 99.000
56.00000 95.000
56.02000 102.000
56.04000 90.000
56.06000 103.000
56.08000 89.000
56.10000 90.000
56.12000 101.000
56.14000 89.000
56.16000 89.000
56.18000 85.000
56.20000 97.000
56.22000 95.000
56.24000 89.000
56.26000 69.000
56.28000 91.000
56.30000 95.000
56.32000 97.000
56.34000 76.000
56.36000 95.000
56.38000 108.000
56.40000 88.000
56.42000 95.000
56.44000 86.000
56.46000 104.000
56.48000 111.000
56.50000 89.000
56.52000 116.000
56.54000 92.000
56.56000 95.000
56.58000 90.000
56.60000 99.000
56.62000 99.000
56.64000 71.000
56.66000 81.000
56.68000 92.000
56.70000 89.000
56.72000 88.000
56.74000 96.000
56.76000 80.000
56.78000 84.000
56.80000 84.000
56.82000 101.000
56.84000 89.000
56.86000 103.000
56.88000 115.000
56.90000 100.000
56.92000 84.000
56.94000 92.000
56.96000 96.000
56.98000 104.000
57.00000 88.000
57.02000 99.000
57.04000 91.000
57.06000 78.000
57.08000 83.000
57.10000 89.000
57.12000 79.000
57.14000 98.000
57.16000 91.000
57.18000 85.000
57.20000 88.000
57.22000 86.000
57.24000 92.000
57.26000 93.000
57.28000 91.000
57.30000 97.000
57.32000 95.000
57.34000 91.000
57.36000 112.000
57.38000 92.000
57.40000 107.000
57.42000 81.000
57.44000 94.000
57.46000 97.000
57.48000 97.000
57.50000 86.000
57.52000 92.000
57.54000 90.000
57.56000 87.000
57.58000 93.000
57.60000 96.000
57.62000 87.000
57.64000 92.000
57.66000 92.000
57.68000 101.000
57.70000 87.000
57.72000 103.000
57.74000 88.000
57.76000 92.000
57.78000 91.000
57.80000 86.000
57.82000 82.000
57.84000 91.000
57.86000 102.000
57.88000 79.000
57.90000 91.000
57.92000 101.000
57.94000 96.000
57.96000 104.000
57.98000 94.000
58.00000 100.000
58.02000 103.000
58.04000 106.000
58.06000 90.000
58.08000 88.000
58.10000 87.000
58.12000 103.000
58.14000 112.000
58.16000 111.000
58.18000 104.000
58.20000 91.000
58.22000 84.000
58.24000 98.000
58.26000 124.000
58.28000 94.000
58.30000 79.000
58.32000 96.000
58.34000 104.000
58.36000 114.000
58.38000 98.000
58.40000 119.000
58.42000 118.000
58.44000 126.000
58.46000 122.000
58.48000 142.000
58.50000 172.000
58.52000 161.000
58.54000 187.000
58.56000 195.000
58.58000 197.000
58.60000 210.000
58.62000 207.000
58.64000 204.000
58.66000 192.000
58.68000 192.000
58.70000 176.000
58.72000 210.000
58.74000 176.000
58.76000 183.000
58.78000 155.000
58.80000 166.000
58.82000 137.000
58.84000 145.000
58.86000 106.000
58.88000 126.000
58.90000 116.000
58.92000 110.000
58.94000 111.000
58.96000 98.000
58.98000 104.000
59.00000 114.000
59.02000 88.000
59.04000 118.000
59.06000 110.000
59.08000 87.000
59.10000 106.000
59.12000 114.000
59.14000 105.000
59.16000 108.000
59.18000 88.000
59.20000 75.000
59.22000 103.000
59.24000 99.000
59.26000 87.000
59.28000 92.000
59.30000 104.000
59.32000 105.000
59.34000 105.000
59.36000 100.000
59.38000 99.000
59.40000 92.000
59.42000 96.000
59.44000 91.000
59.46000 85.000
59.48000 104.000
59.50000 103.000
59.52000 99.000
59.54000 93.000
59.56000 116.000
59.58000 107.000
59.60000 82.000
59.62000 99.000
59.64000 91.000
59.66000 93.000
59.68000 99.000
59.70000 101.000
59.72000 98.000
59.74000 103.000
59.76000 96.000
59.78000 92.000
59.80000 93.000
59.82000 93.000
59.84000 92.000
59.86000 113.000
59.88000 98.000
59.90000 92.000
59.92000 111.000
59.94000 111.000
59.96000 106.000
