5.00000 1148.000
5.04000 1076.000
5.08000 1056.000
5.12000 1099.000
5.16000 1011.000
5.20000 1019.000
5.24000 1031.000
5.28000 1036.000
5.32000 1061.000
5.36000 971.000
5.40000 1023.000
5.44000 997.000
5.48000 976.000
5.52000 973.000
5.56000 1010.000
5.60000 988.000
5.64000 973.000
5.68000 952.000
5.72000 1051.000
5.76000 1037.000
5.80000 1089.000
5.84000 1157.000
5.88000 1072.000
5.92000 1058.000
5.96000 1036.000
6.00000 951.000
6.04000 907.000
6.08000 883.000
6.12000 928.000
6.16000 905.000
6.20000 884.000
6.24000 863.000
6.28000 876.000
6.32000 856.000
6.36000 879.000
6.40000 814.000
6.44000 922.000
6.48000 838.000
6.52000 818.000
6.56000 845.000
6.60000 841.000
6.64000 809.000
6.68000 792.000
6.72000 765.000
6.76000 870.000
6.80000 822.000
6.84000 812.000
6.88000 829.000
6.92000 784.000
6.96000 825.000
7.00000 836.000
7.04000 734.000
7.08000 799.000
7.12000 776.000
7.16000 710.000
7.20000 785.000
7.24000 738.000
7.28000 820.000
7.32000 753.000
7.36000 699.000
7.40000 761.000
7.44000 730.000
7.48000 743.000
7.52000 743.000
7.56000 746.000
7.60000 698.000
7.64000 727.000
7.68000 710.000
7.72000 685.000
7.76000 706.000
7.80000 681.000
7.84000 725.000
7.88000 711.000
7.92000 708.000
7.96000 697.000
8.00000 689.000
8.04000 686.000
8.08000 722.000
8.12000 678.000
8.16000 692.000
8.20000 703.000
8.24000 665.000
8.28000 643.000
8.32000 677.000
8.36000 662.000
8.40000 623.000
8.44000 682.000
8.48000 664.000
8.52000 655.000
8.56000 662.000
8.60000 665.000
8.64000 632.000
8.68000 631.000
8.72000 602.000
8.76000 621.000
8.80000 626.000
8.84000 616.000
8.88000 649.000
8.92000 672.000
8.96000 673.000
9.00000 603.000
9.04000 621.000
9.08000 610.000
9.12000 574.000
9.16000 564.000
9.20000 590.000
9.24000 560.000
9.28000 547.000
9.32000 592.000
9.36000 619.000
9.40000 602.000
9.44000 604.000
9.48000 594.000
9.52000 588.000
9.56000 592.000
9.60000 577.000
9.64000 545.000
9.68000 586.000
9.72000 562.000
9.76000 554.000
9.80000 567.000
9.84000 543.000
9.88000 583.000
9.92000 576.000
9.96000 629.000
10.00000 592.000
10.04000 559.000
10.08000 546.000
10.12000 576.000
10.16000 547.000
10.20000 602.000
10.24000 579.000
10.28000 621.000
10.32000 574.000
10.36000 543.000
10.40000 570.000
10.44000 540.000
10.48000 547.000
10.52000 591.000
10.56000 534.000
10.60000 554.000
10.64000 564.000
10.68000 567.000
10.72000 550.000
10.76000 583.000
10.80000 601.000
10.84000 512.000
10.88000 582.000
10.92000 564.000
10.96000 564.000
11.00000 594.000
11.04000 567.000
11.08000 579.000
11.12000 556.000
11.16000 563.000
11.20000 571.000
11.24000 633.000
11.28000 631.000
11.32000 593.000
11.36000 587.000
11.40000 640.000
11.44000 622.000
11.48000 697.000
11.52000 676.000
11.56000 706.000
11.60000 715.000
11.64000 698.000
11.68000 697.000
11.72000 733.000
11.76000 700.000
11.80000 696.000
11.84000 677.000
11.88000 692.000
11.92000 675.000
11.96000 733.000
12.00000 735.000
12.04000 796.000
12.08000 837.000
12.12000 882.000
12.16000 1009.000
12.20000 1034.000
12.24000 1141.000
12.28000 1232.000
12.32000 1356.000
12.36000 1646.000
12.40000 2040.000
12.44000 2712.000
12.48000 3864.000
12.52000 5614.000
12.56000 8028.000
12.60000 12270.000
12.64000 19526.000
12.68000 31275.000
12.72000 44465.000
12.76000 50336.000
12.80000 41775.000
12.84000 27131.000
12.88000 16427.000
12.92000 9740.000
12.96000 5985.000
13.00000 3998.000
13.04000 2856.000
13.08000 2074.000
13.12000 1686.000
13.16000 1487.000
13.20000 1355.000
13.24000 1168.000
13.28000 1034.000
13.32000 923.000
13.36000 849.000
13.40000 810.000
13.44000 765.000
13.48000 698.000
13.52000 691.000
13.56000 703.000
13.60000 739.000
13.64000 668.000
13.68000 730.000
13.72000 742.000
13.76000 796.000
13.80000 724.000
13.84000 896.000
13.88000 944.000
13.92000 1018.000
13.96000 1125.000
14.00000 1208.000
14.04000 1401.000
14.08000 1673.000
14.12000 1836.000
14.16000 2269.000
14.20000 2550.000
14.24000 3022.000
14.28000 3878.000
14.32000 4651.000
14.36000 6195.000
14.40000 7429.000
14.44000 8574.000
14.48000 8734.000
14.52000 7907.000
14.56000 6841.000
14.60000 5313.000
14.64000 3818.000
14.68000 2522.000
14.72000 1717.000
14.76000 1210.000
14.80000 948.000
14.84000 799.000
14.88000 731.000
14.92000 670.000
14.96000 634.000
15.00000 619.000
15.04000 593.000
15.08000 587.000
15.12000 576.000
15.16000 554.000
15.20000 505.000
15.24000 492.000
15.28000 540.000
15.32000 479.000
15.36000 545.000
15.40000 520.000
15.44000 451.000
15.48000 460.000
15.52000 483.000
15.56000 482.000
15.60000 435.000
15.64000 505.000
15.68000 496.000
15.72000 506.000
15.76000 476.000
15.80000 480.000
15.84000 444.000
15.88000 474.000
15.92000 480.000
15.96000 496.000
16.00000 491.000
16.04000 504.000
16.08000 437.000
16.12000 495.000
16.16000 505.000
16.20000 473.000
16.24000 465.000
16.28000 474.000
16.32000 483.000
16.36000 477.000
16.40000 458.000
16.44000 466.000
16.48000 466.000
16.52000 540.000
16.56000 489.000
16.60000 456.000
16.64000 497.000
16.68000 518.000
16.72000 486.000
16.76000 502.000
16.80000 481.000
16.84000 498.000
16.88000 530.000
16.92000 462.000
16.96000 576.000
17.00000 502.000
17.04000 508.000
17.08000 491.000
17.12000 491.000
17.16000 503.000
17.20000 498.000
17.24000 499.000
17.28000 511.000
17.32000 537.000
17.36000 451.000
17.40000 504.000
17.44000 576.000
17.48000 539.000
17.52000 500.000
17.56000 500.000
17.60000 515.000
17.64000 500.000
17.68000 563.000
17.72000 552.000
17.76000 561.000
17.80000 503.000
17.84000 562.000
17.88000 557.000
17.92000 528.000
17.96000 549.000
18.00000 542.000
18.04000 530.000
18.08000 566.000
18.12000 530.000
18.16000 581.000
18.20000 535.000
18.24000 579.000
18.28000 541.000
18.32000 574.000
18.36000 531.000
18.40000 573.000
18.44000 568.000
18.48000 570.000
18.52000 554.000
18.56000 582.000
18.60000 574.000
18.64000 573.000
18.68000 538.000
18.72000 586.000
18.76000 595.000
18.80000 571.000
18.84000 573.000
18.88000 578.000
18.92000 607.000
18.96000 543.000
19.00000 575.000
19.04000 602.000
19.08000 603.000
19.12000 621.000
19.16000 650.000
19.20000 606.000
19.24000 620.000
19.28000 593.000
19.32000 619.000
19.36000 605.000
19.40000 655.000
19.44000 627.000
19.48000 645.000
19.52000 621.000
19.56000 648.000
19.60000 630.000
19.64000 647.000
19.68000 629.000
19.72000 629.000
19.76000 623.000
19.80000 627.000
19.84000 639.000
19.88000 681.000
19.92000 620.000
19.96000 674.000
20.00000 723.000
20.04000 771.000
20.08000 723.000
20.12000 780.000
20.16000 853.000
20.20000 944.000
20.24000 1052.000
20.28000 1080.000
20.32000 1303.000
20.36000 1520.000
20.40000 1851.000
20.44000 2062.000
20.48000 2216.000
20.52000 2059.000
20.56000 1925.000
20.60000 1436.000
20.64000 1221.000
20.68000 1006.000
20.72000 879.000
20.76000 791.000
20.80000 770.000
20.84000 718.000
20.88000 713.000
20.92000 753.000
20.96000 768.000
21.00000 765.000
21.04000 745.000
21.08000 733.000
21.12000 721.000
21.16000 761.000
21.20000 714.000
21.24000 669.000
21.28000 715.000
21.32000 746.000
21.36000 724.000
21.40000 770.000
21.44000 773.000
21.48000 774.000
21.52000 698.000
21.56000 716.000
21.60000 724.000
21.64000 721.000
21.68000 732.000
21.72000 773.000
21.76000 762.000
21.80000 730.000
21.84000 780.000
21.88000 752.000
21.92000 754.000
21.96000 790.000
22.00000 728.000
22.04000 732.000
22.08000 765.000
22.12000 794.000
22.16000 804.000
22.20000 758.000
22.24000 764.000
22.28000 812.000
22.32000 731.000
22.36000 773.000
22.40000 784.000
22.44000 745.000
22.48000 752.000
22.52000 770.000
22.56000 791.000
22.60000 780.000
22.64000 793.000
22.68000 778.000
22.72000 764.000
22.76000 811.000
22.80000 809.000
22.84000 809.000
22.88000 801.000
22.92000 761.000
22.96000 757.000
23.00000 791.000
23.04000 802.000
23.08000 764.000
23.12000 792.000
23.16000 800.000
23.20000 836.000
23.24000 795.000
23.28000 797.000
23.32000 814.000
23.36000 799.000
23.40000 829.000
23.44000 852.000
23.48000 848.000
23.52000 769.000
23.56000 778.000
23.60000 766.000
23.64000 823.000
23.68000 848.000
23.72000 801.000
23.76000 791.000
23.80000 827.000
23.84000 831.000
23.88000 801.000
23.92000 777.000
23.96000 783.000
24.00000 796.000
24.04000 856.000
24.08000 763.000
24.12000 790.000
24.16000 822.000
24.20000 835.000
24.24000 796.000
24.28000 794.000
24.32000 881.000
24.36000 769.000
24.40000 746.000
24.44000 856.000
24.48000 798.000
24.52000 814.000
24.56000 878.000
24.60000 852.000
24.64000 821.000
24.68000 823.000
24.72000 800.000
24.76000 825.000
24.80000 816.000
24.84000 862.000
24.88000 931.000
24.92000 954.000
24.96000 915.000
25.00000 1006.000
25.04000 1078.000
25.08000 1129.000
25.12000 1166.000
25.16000 1118.000
25.20000 1125.000
25.24000 1062.000
25.28000 1035.000
25.32000 1080.000
25.36000 1030.000
25.40000 1036.000
25.44000 1158.000
25.48000 1210.000
25.52000 1355.000
25.56000 1594.000
25.60000 1689.000
25.64000 1880.000
25.68000 1902.000
25.72000 1710.000
25.76000 1450.000
25.80000 1181.000
25.84000 1020.000
25.88000 958.000
25.92000 886.000
25.96000 899.000
26.00000 846.000
26.04000 809.000
26.08000 792.000
26.12000 778.000
26.16000 834.000
26.20000 782.000
26.24000 794.000
26.28000 849.000
26.32000 816.000
26.36000 801.000
26.40000 795.000
26.44000 791.000
26.48000 822.000
26.52000 773.000
26.56000 820.000
26.60000 788.000
26.64000 777.000
26.68000 777.000
26.72000 768.000
26.76000 762.000
26.80000 800.000
26.84000 824.000
26.88000 797.000
26.92000 796.000
26.96000 768.000
27.00000 783.000
27.04000 752.000
27.08000 800.000
27.12000 787.000
27.16000 816.000
27.20000 769.000
27.24000 778.000
27.28000 777.000
27.32000 759.000
27.36000 726.000
27.40000 742.000
27.44000 705.000
27.48000 739.000
27.52000 789.000
27.56000 761.000
27.60000 774.000
27.64000 785.000
27.68000 815.000
27.72000 808.000
27.76000 814.000
27.80000 763.000
27.84000 760.000
27.88000 776.000
27.92000 777.000
27.96000 738.000
28.00000 783.000
28.04000 724.000
28.08000 788.000
28.12000 722.000
28.16000 796.000
28.20000 737.000
28.24000 741.000
28.28000 793.000
28.32000 770.000
28.36000 781.000
28.40000 764.000
28.44000 759.000
28.48000 796.000
28.52000 833.000
28.56000 817.000
28.60000 776.000
28.64000 813.000
28.68000 827.000
28.72000 874.000
28.76000 948.000
28.80000 1050.000
28.84000 1120.000
28.88000 1261.000
28.92000 1503.000
28.96000 1795.000
29.00000 2215.000
29.04000 2587.000
29.08000 3016.000
29.12000 3485.000
29.16000 3481.000
29.20000 3606.000
29.24000 3566.000
29.28000 3503.000
29.32000 3384.000
29.36000 3210.000
29.40000 2896.000
29.44000 2586.000
29.48000 2069.000
29.52000 1675.000
29.56000 1464.000
29.60000 1185.000
29.64000 1094.000
29.68000 959.000
29.72000 885.000
29.76000 839.000
29.80000 854.000
29.84000 806.000
29.88000 780.000
29.92000 798.000
29.96000 799.000
30.00000 787.000
30.04000 755.000
30.08000 737.000
30.12000 798.000
30.16000 739.000
30.20000 782.000
30.24000 761.000
30.28000 703.000
30.32000 659.000
30.36000 734.000
30.40000 731.000
30.44000 730.000
30.48000 729.000
30.52000 712.000
30.56000 725.000
30.60000 672.000
30.64000 705.000
30.68000 662.000
30.72000 685.000
30.76000 709.000
30.80000 751.000
30.84000 709.000
30.88000 713.000
30.92000 748.000
30.96000 717.000
31.00000 801.000
31.04000 796.000
31.08000 830.000
31.12000 945.000
31.16000 1098.000
31.20000 1447.000
31.24000 1812.000
31.28000 2275.000
31.32000 2492.000
31.36000 2422.000
31.40000 2160.000
31.44000 1673.000
31.48000 1340.000
31.52000 1023.000
31.56000 900.000
31.60000 860.000
31.64000 744.000
31.68000 708.000
31.72000 704.000
31.76000 719.000
31.80000 672.000
31.84000 706.000
31.88000 649.000
31.92000 677.000
31.96000 651.000
32.00000 683.000
32.04000 675.000
32.08000 704.000
32.12000 671.000
32.16000 674.000
32.20000 674.000
32.24000 697.000
32.28000 706.000
32.32000 840.000
32.36000 886.000
32.40000 964.000
32.44000 1116.000
32.48000 1334.000
32.52000 1639.000
32.56000 1866.000
32.60000 2084.000
32.64000 2212.000
32.68000 2080.000
32.72000 1961.000
32.76000 1792.000
32.80000 1576.000
32.84000 1307.000
32.88000 1086.000
32.92000 954.000
32.96000 872.000
33.00000 758.000
33.04000 758.000
33.08000 665.000
33.12000 696.000
33.16000 628.000
33.20000 567.000
33.24000 637.000
33.28000 586.000
33.32000 604.000
33.36000 573.000
33.40000 584.000
33.44000 580.000
33.48000 589.000
33.52000 558.000
33.56000 603.000
33.60000 583.000
33.64000 579.000
33.68000 521.000
33.72000 590.000
33.76000 575.000
33.80000 577.000
33.84000 534.000
33.88000 513.000
33.92000 530.000
33.96000 549.000
34.00000 589.000
34.04000 548.000
34.08000 544.000
34.12000 559.000
34.16000 520.000
34.20000 517.000
34.24000 548.000
34.28000 534.000
34.32000 560.000
34.36000 556.000
34.40000 537.000
34.44000 503.000
34.48000 512.000
34.52000 508.000
34.56000 534.000
34.60000 484.000
34.64000 511.000
34.68000 473.000
34.72000 543.000
34.76000 546.000
34.80000 511.000
34.84000 519.000
34.88000 503.000
34.92000 530.000
34.96000 504.000
35.00000 490.000
35.04000 527.000
35.08000 487.000
35.12000 518.000
35.16000 494.000
35.20000 460.000
35.24000 487.000
35.28000 505.000
35.32000 485.000
35.36000 484.000
35.40000 487.000
35.44000 506.000
35.48000 523.000
35.52000 515.000
35.56000 523.000
35.60000 505.000
35.64000 565.000
35.68000 614.000
35.72000 687.000
35.76000 662.000
35.80000 771.000
35.84000 781.000
35.88000 797.000
35.92000 730.000
35.96000 711.000
36.00000 658.000
36.04000 652.000
36.08000 602.000
36.12000 526.000
36.16000 544.000
36.20000 535.000
36.24000 533.000
36.28000 511.000
36.32000 471.000
36.36000 473.000
36.40000 454.000
36.44000 464.000
36.48000 467.000
36.52000 468.000
36.56000 425.000
36.60000 437.000
36.64000 463.000
36.68000 464.000
36.72000 457.000
36.76000 439.000
36.80000 412.000
36.84000 444.000
36.88000 463.000
36.92000 423.000
36.96000 446.000
37.00000 442.000
37.04000 460.000
37.08000 430.000
37.12000 471.000
37.16000 489.000
37.20000 437.000
37.24000 406.000
37.28000 435.000
37.32000 438.000
37.36000 429.000
37.40000 433.000
37.44000 449.000
37.48000 456.000
37.52000 431.000
37.56000 423.000
37.60000 448.000
37.64000 453.000
37.68000 445.000
37.72000 453.000
37.76000 443.000
37.80000 456.000
37.84000 430.000
37.88000 449.000
37.92000 454.000
37.96000 481.000
38.00000 507.000
38.04000 447.000
38.08000 484.000
38.12000 482.000
38.16000 499.000
38.20000 476.000
38.24000 542.000
38.28000 525.000
38.32000 521.000
38.36000 601.000
38.40000 650.000
38.44000 723.000
38.48000 870.000
38.52000 993.000
38.56000 1255.000
38.60000 1501.000
38.64000 1922.000
38.68000 2416.000
38.72000 3121.000
38.76000 4044.000
38.80000 5036.000
38.84000 5961.000
38.88000 6337.000
38.92000 6324.000
38.96000 5517.000
39.00000 4675.000
39.04000 3496.000
39.08000 2530.000
39.12000 1914.000
39.16000 1419.000
39.20000 1081.000
39.24000 876.000
39.28000 756.000
39.32000 653.000
39.36000 654.000
39.40000 612.000
39.44000 549.000
39.48000 614.000
39.52000 587.000
39.56000 515.000
39.60000 524.000
39.64000 499.000
39.68000 481.000
39.72000 503.000
39.76000 499.000
39.80000 463.000
39.84000 464.000
39.88000 477.000
39.92000 424.000
39.96000 461.000
40.00000 459.000
40.04000 460.000
40.08000 457.000
40.12000 426.000
40.16000 437.000
40.20000 435.000
40.24000 424.000
40.28000 430.000
40.32000 418.000
40.36000 444.000
40.40000 421.000
40.44000 415.000
40.48000 425.000
40.52000 401.000
40.56000 400.000
40.60000 417.000
40.64000 431.000
40.68000 409.000
40.72000 410.000
40.76000 432.000
40.80000 416.000
40.84000 420.000
40.88000 372.000
40.92000 425.000
40.96000 396.000
41.00000 405.000
41.04000 426.000
41.08000 373.000
41.12000 422.000
41.16000 418.000
41.20000 446.000
41.24000 408.000
41.28000 437.000
41.32000 474.000
41.36000 523.000
41.40000 597.000
41.44000 739.000
41.48000 867.000
41.52000 1025.000
41.56000 1188.000
41.60000 1363.000
41.64000 1341.000
41.68000 1336.000
41.72000 1286.000
41.76000 1209.000
41.80000 1075.000
41.84000 953.000
41.88000 874.000
41.92000 766.000
41.96000 651.000
42.00000 593.000
42.04000 549.000
42.08000 514.000
42.12000 488.000
42.16000 447.000
42.20000 480.000
42.24000 399.000
42.28000 459.000
42.32000 420.000
42.36000 403.000
42.40000 456.000
42.44000 411.000
42.48000 387.000
42.52000 415.000
42.56000 392.000
42.60000 423.000
42.64000 377.000
42.68000 383.000
42.72000 426.000
42.76000 373.000
42.80000 409.000
42.84000 395.000
42.88000 398.000
42.92000 433.000
42.96000 388.000
43.00000 409.000
43.04000 401.000
43.08000 401.000
43.12000 399.000
43.16000 404.000
43.20000 429.000
43.24000 398.000
43.28000 410.000
43.32000 393.000
43.36000 369.000
43.40000 382.000
43.44000 410.000
43.48000 372.000
43.52000 371.000
43.56000 403.000
43.60000 397.000
43.64000 428.000
43.68000 392.000
43.72000 377.000
43.76000 408.000
43.80000 383.000
43.84000 393.000
43.88000 392.000
43.92000 420.000
43.96000 470.000
44.00000 452.000
44.04000 521.000
44.08000 525.000
44.12000 593.000
44.16000 714.000
44.20000 784.000
44.24000 875.000
44.28000 871.000
44.32000 885.000
44.36000 873.000
44.40000 854.000
44.44000 789.000
44.48000 781.000
44.52000 675.000
44.56000 647.000
44.60000 611.000
44.64000 554.000
44.68000 541.000
44.72000 485.000
44.76000 474.000
44.80000 426.000
44.84000 474.000
44.88000 387.000
44.92000 474.000
44.96000 419.000
45.00000 388.000
45.04000 433.000
45.08000 414.000
45.12000 383.000
45.16000 419.000
45.20000 373.000
45.24000 367.000
45.28000 398.000
45.32000 386.000
45.36000 357.000
45.40000 355.000
45.44000 320.000
45.48000 367.000
45.52000 383.000
45.56000 392.000
45.60000 372.000
45.64000 332.000
45.68000 361.000
45.72000 394.000
45.76000 374.000
45.80000 325.000
45.84000 371.000
45.88000 353.000
45.92000 370.000
45.96000 365.000
46.00000 374.000
46.04000 351.000
46.08000 354.000
46.12000 336.000
46.16000 364.000
46.20000 326.000
46.24000 349.000
46.28000 337.000
46.32000 335.000
46.36000 357.000
46.40000 339.000
46.44000 345.000
46.48000 350.000
46.52000 372.000
46.56000 361.000
46.60000 350.000
46.64000 369.000
46.68000 362.000
46.72000 319.000
46.76000 362.000
46.80000 389.000
46.84000 383.000
46.88000 352.000
46.92000 343.000
46.96000 406.000
47.00000 371.000
47.04000 353.000
47.08000 379.000
47.12000 370.000
47.16000 321.000
47.20000 377.000
47.24000 369.000
47.28000 391.000
47.32000 366.000
47.36000 329.000
47.40000 355.000
47.44000 330.000
47.48000 335.000
47.52000 320.000
47.56000 358.000
47.60000 337.000
47.64000 343.000
47.68000 367.000
47.72000 335.000
47.76000 341.000
47.80000 339.000
47.84000 341.000
47.88000 328.000
47.92000 371.000
47.96000 305.000
48.00000 310.000
48.04000 319.000
48.08000 315.000
48.12000 331.000
48.16000 333.000
48.20000 321.000
48.24000 337.000
48.28000 301.000
48.32000 298.000
48.36000 327.000
48.40000 367.000
48.44000 323.000
48.48000 340.000
48.52000 329.000
48.56000 317.000
48.60000 341.000
48.64000 333.000
48.68000 324.000
48.72000 340.000
48.76000 304.000
48.80000 331.000
48.84000 320.000
48.88000 373.000
48.92000 304.000
48.96000 334.000
49.00000 333.000
49.04000 320.000
49.08000 357.000
49.12000 311.000
49.16000 321.000
49.20000 321.000
49.24000 330.000
49.28000 317.000
49.32000 344.000
49.36000 316.000
49.40000 310.000
49.44000 338.000
49.48000 334.000
49.52000 329.000
49.56000 313.000
49.60000 348.000
49.64000 327.000
49.68000 327.000
49.72000 324.000
49.76000 348.000
49.80000 328.000
49.84000 320.000
49.88000 354.000
49.92000 356.000
49.96000 319.000
50.00000 309.000
50.04000 320.000
50.08000 317.000
50.12000 318.000
50.16000 321.000
50.20000 313.000
50.24000 304.000
50.28000 311.000
50.32000 364.000
50.36000 314.000
50.40000 323.000
50.44000 335.000
50.48000 328.000
50.52000 329.000
50.56000 351.000
50.60000 343.000
50.64000 342.000
50.68000 340.000
50.72000 331.000
50.76000 367.000
50.80000 344.000
50.84000 331.000
50.88000 340.000
50.92000 329.000
50.96000 338.000
51.00000 342.000
51.04000 325.000
51.08000 297.000
51.12000 335.000
51.16000 378.000
51.20000 347.000
51.24000 351.000
51.28000 342.000
51.32000 393.000
51.36000 377.000
51.40000 401.000
51.44000 451.000
51.48000 476.000
51.52000 476.000
51.56000 491.000
51.60000 484.000
51.64000 530.000
51.68000 481.000
51.72000 511.000
51.76000 466.000
51.80000 505.000
51.84000 492.000
51.88000 493.000
51.92000 471.000
51.96000 452.000
52.00000 500.000
52.04000 514.000
52.08000 561.000
52.12000 566.000
52.16000 631.000
52.20000 757.000
52.24000 815.000
52.28000 990.000
52.32000 1073.000
52.36000 1291.000
52.40000 1537.000
52.44000 1944.000
52.48000 2244.000
52.52000 2718.000
52.56000 3299.000
52.60000 3788.000
52.64000 4218.000
52.68000 4423.000
52.72000 4327.000
52.76000 3986.000
52.80000 3573.000
52.84000 3027.000
52.88000 2433.000
52.92000 2025.000
52.96000 1590.000
53.00000 1210.000
53.04000 962.000
53.08000 773.000
53.12000 598.000
53.16000 565.000
53.20000 519.000
53.24000 475.000
53.28000 458.000
53.32000 456.000
53.36000 435.000
53.40000 444.000
53.44000 398.000
53.48000 405.000
53.52000 387.000
53.56000 381.000
53.60000 434.000
53.64000 389.000
53.68000 406.000
53.72000 421.000
53.76000 408.000
53.80000 399.000
53.84000 479.000
53.88000 448.000
53.92000 446.000
53.96000 431.000
54.00000 426.000
54.04000 424.000
54.08000 442.000
54.12000 412.000
54.16000 359.000
54.20000 406.000
54.24000 383.000
54.28000 369.000
54.32000 361.000
54.36000 342.000
54.40000 366.000
54.44000 337.000
54.48000 348.000
54.52000 337.000
54.56000 351.000
54.60000 309.000
54.64000 368.000
54.68000 366.000
54.72000 328.000
54.76000 325.000
54.80000 288.000
54.84000 326.000
54.88000 329.000
54.92000 341.000
54.96000 343.000
55.00000 314.000
55.04000 334.000
55.08000 329.000
55.12000 307.000
55.16000 304.000
55.20000 313.000
55.24000 348.000
55.28000 344.000
55.32000 348.000
55.36000 313.000
55.40000 310.000
55.44000 340.000
55.48000 344.000
55.52000 295.000
55.56000 307.000
55.60000 309.000
55.64000 316.000
55.68000 300.000
55.72000 327.000
55.76000 336.000
55.80000 315.000
55.84000 347.000
55.88000 308.000
55.92000 333.000
55.96000 298.000
56.00000 353.000
56.04000 339.000
56.08000 375.000
56.12000 364.000
56.16000 375.000
56.20000 344.000
56.24000 344.000
56.28000 334.000
56.32000 321.000
56.36000 351.000
56.40000 349.000
56.44000 321.000
56.48000 322.000
56.52000 315.000
56.56000 319.000
56.60000 348.000
56.64000 337.000
56.68000 308.000
56.72000 302.000
56.76000 305.000
56.80000 322.000
56.84000 294.000
56.88000 307.000
56.92000 286.000
56.96000 299.000
57.00000 315.000
57.04000 306.000
57.08000 331.000
57.12000 300.000
57.16000 288.000
57.20000 281.000
57.24000 334.000
57.28000 304.000
57.32000 301.000
57.36000 340.000
57.40000 320.000
57.44000 317.000
57.48000 303.000
57.52000 281.000
57.56000 319.000
57.60000 323.000
57.64000 306.000
57.68000 301.000
57.72000 284.000
57.76000 286.000
57.80000 329.000
57.84000 330.000
57.88000 315.000
57.92000 306.000
57.96000 312.000
58.00000 307.000
58.04000 294.000
58.08000 319.000
58.12000 255.000
58.16000 302.000
58.20000 316.000
58.24000 306.000
58.28000 277.000
58.32000 305.000
58.36000 317.000
58.40000 324.000
58.44000 305.000
58.48000 308.000
58.52000 279.000
58.56000 303.000
58.60000 285.000
58.64000 349.000
58.68000 290.000
58.72000 323.000
58.76000 299.000
58.80000 333.000
58.84000 310.000
58.88000 300.000
58.92000 299.000
58.96000 285.000
59.00000 339.000
59.04000 277.000
59.08000 288.000
59.12000 299.000
59.16000 308.000
59.20000 324.000
59.24000 298.000
59.28000 276.000
59.32000 323.000
59.36000 328.000
59.40000 311.000
59.44000 264.000
59.48000 301.000
59.52000 271.000
59.56000 314.000
59.60000 304.000
59.64000 286.000
59.68000 267.000
59.72000 304.000
59.76000 311.000
59.80000 323.000
59.84000 285.000
59.88000 296.000
59.92000 309.000
