5.00000 1041.000
5.04000 1058.000
5.08000 1038.000
5.12000 1047.000
5.16000 1001.000
5.20000 993.000
5.24000 980.000
5.28000 925.000
5.32000 945.000
5.36000 937.000
5.40000 942.000
5.44000 933.000
5.48000 944.000
5.52000 940.000
5.56000 926.000
5.60000 900.000
5.64000 918.000
5.68000 868.000
5.72000 931.000
5.76000 955.000
5.80000 863.000
5.84000 896.000
5.88000 818.000
5.92000 893.000
5.96000 839.000
6.00000 898.000
6.04000 860.000
6.08000 897.000
6.12000 894.000
6.16000 809.000
6.20000 850.000
6.24000 863.000
6.28000 848.000
6.32000 812.000
6.36000 807.000
6.40000 808.000
6.44000 828.000
6.48000 842.000
6.52000 769.000
6.56000 770.000
6.60000 765.000
6.64000 786.000
6.68000 766.000
6.72000 774.000
6.76000 774.000
6.80000 762.000
6.84000 777.000
6.88000 772.000
6.92000 771.000
6.96000 712.000
7.00000 743.000
7.04000 718.000
7.08000 775.000
7.12000 721.000
7.16000 756.000
7.20000 713.000
7.24000 725.000
7.28000 704.000
7.32000 743.000
7.36000 688.000
7.40000 704.000
7.44000 677.000
7.48000 695.000
7.52000 686.000
7.56000 692.000
7.60000 662.000
7.64000 699.000
7.68000 699.000
7.72000 635.000
7.76000 684.000
7.80000 666.000
7.84000 681.000
7.88000 679.000
7.92000 707.000
7.96000 726.000
8.00000 701.000
8.04000 620.000
8.08000 640.000
8.12000 668.000
8.16000 638.000
8.20000 629.000
8.24000 592.000
8.28000 682.000
8.32000 580.000
8.36000 654.000
8.40000 638.000
8.44000 608.000
8.48000 668.000
8.52000 638.000
8.56000 623.000
8.60000 599.000
8.64000 628.000
8.68000 556.000
8.72000 609.000
8.76000 558.000
8.80000 575.000
8.84000 584.000
8.88000 594.000
8.92000 596.000
8.96000 616.000
9.00000 593.000
9.04000 621.000
9.08000 609.000
9.12000 573.000
9.16000 576.000
9.20000 554.000
9.24000 604.000
9.28000 599.000
9.32000 551.000
9.36000 560.000
9.40000 585.000
9.44000 601.000
9.48000 585.000
9.52000 541.000
9.56000 530.000
9.60000 557.000
9.64000 551.000
9.68000 567.000
9.72000 541.000
9.76000 528.000
9.80000 583.000
9.84000 501.000
9.88000 517.000
9.92000 537.000
9.96000 512.000
10.00000 571.000
10.04000 542.000
10.08000 541.000
10.12000 581.000
10.16000 555.000
10.20000 561.000
10.24000 536.000
10.28000 523.000
10.32000 537.000
10.36000 572.000
10.40000 589.000
10.44000 570.000
10.48000 597.000
10.52000 600.000
10.56000 567.000
10.60000 619.000
10.64000 624.000
10.68000 583.000
10.72000 627.000
10.76000 643.000
10.80000 663.000
10.84000 703.000
10.88000 705.000
10.92000 697.000
10.96000 770.000
11.00000 855.000
11.04000 846.000
11.08000 1030.000
11.12000 1008.000
11.16000 1047.000
11.20000 1327.000
11.24000 1367.000
11.28000 1602.000
11.32000 1723.000
11.36000 1874.000
11.40000 2184.000
11.44000 2571.000
11.48000 3065.000
11.52000 3568.000
11.56000 4419.000
11.60000 5447.000
11.64000 7118.000
11.68000 9837.000
11.72000 13834.000
11.76000 17148.000
11.80000 15894.000
11.84000 10408.000
11.88000 5584.000
11.92000 3386.000
11.96000 2178.000
12.00000 1561.000
12.04000 1227.000
12.08000 987.000
12.12000 970.000
12.16000 846.000
12.20000 819.000
12.24000 786.000
12.28000 837.000
12.32000 889.000
12.36000 999.000
12.40000 1077.000
12.44000 1182.000
12.48000 1282.000
12.52000 1612.000
12.56000 1844.000
12.60000 2043.000
12.64000 2121.000
12.68000 1953.000
12.72000 1813.000
12.76000 1491.000
12.80000 1206.000
12.84000 970.000
12.88000 806.000
12.92000 714.000
12.96000 640.000
13.00000 583.000
13.04000 579.000
13.08000 540.000
13.12000 542.000
13.16000 501.000
13.20000 470.000
13.24000 478.000
13.28000 468.000
13.32000 488.000
13.36000 491.000
13.40000 490.000
13.44000 470.000
13.48000 441.000
13.52000 478.000
13.56000 472.000
13.60000 409.000
13.64000 420.000
13.68000 454.000
13.72000 478.000
13.76000 416.000
13.80000 431.000
13.84000 428.000
13.88000 421.000
13.92000 467.000
13.96000 434.000
14.00000 421.000
14.04000 437.000
14.08000 474.000
14.12000 445.000
14.16000 407.000
14.20000 467.000
14.24000 428.000
14.28000 435.000
14.32000 423.000
14.36000 439.000
14.40000 407.000
14.44000 375.000
14.48000 424.000
14.52000 411.000
14.56000 442.000
14.60000 422.000
14.64000 416.000
14.68000 387.000
14.72000 422.000
14.76000 408.000
14.80000 449.000
14.84000 444.000
14.88000 426.000
14.92000 451.000
14.96000 436.000
15.00000 446.000
15.04000 448.000
15.08000 417.000
15.12000 424.000
15.16000 422.000
15.20000 455.000
15.24000 416.000
15.28000 433.000
15.32000 431.000
15.36000 415.000
15.40000 430.000
15.44000 439.000
15.48000 401.000
15.52000 420.000
15.56000 454.000
15.60000 432.000
15.64000 459.000
15.68000 448.000
15.72000 475.000
15.76000 448.000
15.80000 485.000
15.84000 516.000
15.88000 554.000
15.92000 568.000
15.96000 563.000
16.00000 664.000
16.04000 715.000
16.08000 774.000
16.12000 874.000
16.16000 989.000
16.20000 1152.000
16.24000 1157.000
16.28000 1013.000
16.32000 807.000
16.36000 679.000
16.40000 560.000
16.44000 509.000
16.48000 506.000
16.52000 444.000
16.56000 482.000
16.60000 466.000
16.64000 454.000
16.68000 451.000
16.72000 447.000
16.76000 456.000
16.80000 460.000
16.84000 456.000
16.88000 452.000
16.92000 482.000
16.96000 440.000
17.00000 442.000
17.04000 447.000
17.08000 465.000
17.12000 465.000
17.16000 466.000
17.20000 468.000
17.24000 465.000
17.28000 526.000
17.32000 484.000
17.36000 479.000
17.40000 469.000
17.44000 453.000
17.48000 441.000
17.52000 422.000
17.56000 481.000
17.60000 459.000
17.64000 482.000
17.68000 482.000
17.72000 453.000
17.76000 456.000
17.80000 438.000
17.84000 462.000
17.88000 458.000
17.92000 489.000
17.96000 514.000
18.00000 474.000
18.04000 455.000
18.08000 488.000
18.12000 486.000
18.16000 483.000
18.20000 460.000
18.24000 505.000
18.28000 548.000
18.32000 502.000
18.36000 486.000
18.40000 500.000
18.44000 519.000
18.48000 442.000
18.52000 529.000
18.56000 513.000
18.60000 497.000
18.64000 519.000
18.68000 506.000
18.72000 537.000
18.76000 498.000
18.80000 506.000
18.84000 505.000
18.88000 547.000
18.92000 553.000
18.96000 543.000
19.00000 543.000
19.04000 557.000
19.08000 494.000
19.12000 541.000
19.16000 541.000
19.20000 539.000
19.24000 528.000
19.28000 531.000
19.32000 560.000
19.36000 552.000
19.40000 537.000
19.44000 530.000
19.48000 580.000
19.52000 562.000
19.56000 553.000
19.60000 573.000
19.64000 534.000
19.68000 554.000
19.72000 552.000
19.76000 542.000
19.80000 599.000
19.84000 558.000
19.88000 546.000
19.92000 593.000
19.96000 533.000
20.00000 631.000
20.04000 577.000
20.08000 579.000
20.12000 614.000
20.16000 705.000
20.20000 668.000
20.24000 678.000
20.28000 754.000
20.32000 747.000
20.36000 872.000
20.40000 937.000
20.44000 1099.000
20.48000 967.000
20.52000 841.000
20.56000 774.000
20.60000 682.000
20.64000 634.000
20.68000 652.000
20.72000 611.000
20.76000 612.000
20.80000 609.000
20.84000 628.000
20.88000 610.000
20.92000 629.000
20.96000 599.000
21.00000 649.000
21.04000 619.000
21.08000 662.000
21.12000 617.000
21.16000 595.000
21.20000 634.000
21.24000 635.000
21.28000 652.000
21.32000 599.000
21.36000 658.000
21.40000 692.000
21.44000 599.000
21.48000 636.000
21.52000 608.000
21.56000 631.000
21.60000 677.000
21.64000 679.000
21.68000 662.000
21.72000 686.000
21.76000 676.000
21.80000 618.000
21.84000 636.000
21.88000 684.000
21.92000 723.000
21.96000 624.000
22.00000 676.000
22.04000 671.000
22.08000 678.000
22.12000 680.000
22.16000 799.000
22.20000 778.000
22.24000 785.000
22.28000 863.000
22.32000 1002.000
22.36000 1239.000
22.40000 1283.000
22.44000 1319.000
22.48000 1183.000
22.52000 1006.000
22.56000 900.000
22.60000 808.000
22.64000 757.000
22.68000 763.000
22.72000 714.000
22.76000 762.000
22.80000 722.000
22.84000 766.000
22.88000 754.000
22.92000 745.000
22.96000 740.000
23.00000 790.000
23.04000 719.000
23.08000 713.000
23.12000 738.000
23.16000 706.000
23.20000 724.000
23.24000 743.000
23.28000 779.000
23.32000 767.000
23.36000 738.000
23.40000 742.000
23.44000 764.000
23.48000 782.000
23.52000 726.000
23.56000 752.000
23.60000 703.000
23.64000 761.000
23.68000 712.000
23.72000 739.000
23.76000 721.000
23.80000 732.000
23.84000 764.000
23.88000 771.000
23.92000 715.000
23.96000 715.000
24.00000 750.000
24.04000 756.000
24.08000 731.000
24.12000 691.000
24.16000 746.000
24.20000 709.000
24.24000 802.000
24.28000 751.000
24.32000 722.000
24.36000 747.000
24.40000 785.000
24.44000 691.000
24.48000 753.000
24.52000 717.000
24.56000 705.000
24.60000 736.000
24.64000 740.000
24.68000 749.000
24.72000 791.000
24.76000 756.000
24.80000 756.000
24.84000 738.000
24.88000 799.000
24.92000 768.000
24.96000 816.000
25.00000 832.000
25.04000 815.000
25.08000 854.000
25.12000 828.000
25.16000 848.000
25.20000 956.000
25.24000 940.000
25.28000 1025.000
25.32000 1150.000
25.36000 1157.000
25.40000 1164.000
25.44000 1125.000
25.48000 1062.000
25.52000 983.000
25.56000 972.000
25.60000 895.000
25.64000 883.000
25.68000 910.000
25.72000 951.000
25.76000 962.000
25.80000 976.000
25.84000 1090.000
25.88000 1093.000
25.92000 1297.000
25.96000 1429.000
26.00000 1580.000
26.04000 1879.000
26.08000 2387.000
26.12000 2860.000
26.16000 3638.000
26.20000 4290.000
26.24000 4298.000
26.28000 3702.000
26.32000 2835.000
26.36000 2027.000
26.40000 1571.000
26.44000 1198.000
26.48000 1093.000
26.52000 1024.000
26.56000 923.000
26.60000 858.000
26.64000 887.000
26.68000 869.000
26.72000 800.000
26.76000 781.000
26.80000 844.000
26.84000 790.000
26.88000 789.000
26.92000 772.000
26.96000 844.000
27.00000 764.000
27.04000 772.000
27.08000 799.000
27.12000 756.000
27.16000 744.000
27.20000 778.000
27.24000 782.000
27.28000 736.000
27.32000 764.000
27.36000 765.000
27.40000 702.000
27.44000 760.000
27.48000 724.000
27.52000 787.000
27.56000 780.000
27.60000 752.000
27.64000 746.000
27.68000 709.000
27.72000 706.000
27.76000 722.000
27.80000 747.000
27.84000 715.000
27.88000 734.000
27.92000 731.000
27.96000 710.000
28.00000 673.000
28.04000 717.000
28.08000 737.000
28.12000 723.000
28.16000 743.000
28.20000 744.000
28.24000 687.000
28.28000 732.000
28.32000 745.000
28.36000 725.000
28.40000 725.000
28.44000 690.000
28.48000 682.000
28.52000 721.000
28.56000 747.000
28.60000 679.000
28.64000 681.000
28.68000 693.000
28.72000 711.000
28.76000 760.000
28.80000 725.000
28.84000 693.000
28.88000 732.000
28.92000 680.000
28.96000 761.000
29.00000 710.000
29.04000 697.000
29.08000 713.000
29.12000 691.000
29.16000 729.000
29.20000 725.000
29.24000 733.000
29.28000 709.000
29.32000 707.000
29.36000 707.000
29.40000 715.000
29.44000 745.000
29.48000 718.000
29.52000 666.000
29.56000 733.000
29.60000 708.000
29.64000 746.000
29.68000 717.000
29.72000 724.000
29.76000 702.000
29.80000 750.000
29.84000 654.000
29.88000 671.000
29.92000 677.000
29.96000 702.000
30.00000 704.000
30.04000 712.000
30.08000 683.000
30.12000 748.000
30.16000 755.000
30.20000 799.000
30.24000 822.000
30.28000 856.000
30.32000 967.000
30.36000 1142.000
30.40000 1344.000
30.44000 1532.000
30.48000 1735.000
30.52000 1969.000
30.56000 1812.000
30.60000 1612.000
30.64000 1368.000
30.68000 1141.000
30.72000 974.000
30.76000 856.000
30.80000 794.000
30.84000 716.000
30.88000 705.000
30.92000 730.000
30.96000 689.000
31.00000 718.000
31.04000 726.000
31.08000 711.000
31.12000 736.000
31.16000 818.000
31.20000 845.000
31.24000 855.000
31.28000 987.000
31.32000 1102.000
31.36000 1344.000
31.40000 1612.000
31.44000 1939.000
31.48000 1971.000
31.52000 1828.000
31.56000 1521.000
31.60000 1210.000
31.64000 906.000
31.68000 775.000
31.72000 701.000
31.76000 705.000
31.80000 669.000
31.84000 673.000
31.88000 662.000
31.92000 666.000
31.96000 678.000
32.00000 651.000
32.04000 657.000
32.08000 612.000
32.12000 667.000
32.16000 632.000
32.20000 672.000
32.24000 635.000
32.28000 638.000
32.32000 659.000
32.36000 661.000
32.40000 652.000
32.44000 662.000
32.48000 719.000
32.52000 757.000
32.56000 867.000
32.60000 864.000
32.64000 971.000
32.68000 1188.000
32.72000 1454.000
32.76000 1715.000
32.80000 2046.000
32.84000 1996.000
32.88000 1743.000
32.92000 1473.000
32.96000 1181.000
33.00000 984.000
33.04000 858.000
33.08000 720.000
33.12000 714.000
33.16000 684.000
33.20000 659.000
33.24000 650.000
33.28000 589.000
33.32000 622.000
33.36000 652.000
33.40000 651.000
33.44000 712.000
33.48000 712.000
33.52000 658.000
33.56000 686.000
33.60000 626.000
33.64000 592.000
33.68000 592.000
33.72000 526.000
33.76000 600.000
33.80000 540.000
33.84000 596.000
33.88000 555.000
33.92000 579.000
33.96000 533.000
34.00000 514.000
34.04000 510.000
34.08000 506.000
34.12000 533.000
34.16000 511.000
34.20000 518.000
34.24000 529.000
34.28000 507.000
34.32000 531.000
34.36000 545.000
34.40000 500.000
34.44000 522.000
34.48000 491.000
34.52000 503.000
34.56000 538.000
34.60000 482.000
34.64000 506.000
34.68000 482.000
34.72000 483.000
34.76000 507.000
34.80000 495.000
34.84000 525.000
34.88000 470.000
34.92000 443.000
34.96000 434.000
35.00000 478.000
35.04000 484.000
35.08000 471.000
35.12000 471.000
35.16000 465.000
35.20000 484.000
35.24000 451.000
35.28000 508.000
35.32000 440.000
35.36000 459.000
35.40000 447.000
35.44000 466.000
35.48000 431.000
35.52000 485.000
35.56000 468.000
35.60000 499.000
35.64000 476.000
35.68000 542.000
35.72000 548.000
35.76000 623.000
35.80000 615.000
35.84000 718.000
35.88000 624.000
35.92000 617.000
35.96000 572.000
36.00000 550.000
36.04000 512.000
36.08000 453.000
36.12000 464.000
36.16000 435.000
36.20000 451.000
36.24000 470.000
36.28000 439.000
36.32000 435.000
36.36000 404.000
36.40000 412.000
36.44000 433.000
36.48000 432.000
36.52000 418.000
36.56000 374.000
36.60000 420.000
36.64000 414.000
36.68000 436.000
36.72000 416.000
36.76000 395.000
36.80000 421.000
36.84000 398.000
36.88000 407.000
36.92000 425.000
36.96000 430.000
37.00000 404.000
37.04000 374.000
37.08000 379.000
37.12000 406.000
37.16000 448.000
37.20000 417.000
37.24000 412.000
37.28000 404.000
37.32000 431.000
37.36000 402.000
37.40000 371.000
37.44000 457.000
37.48000 398.000
37.52000 399.000
37.56000 404.000
37.60000 364.000
37.64000 383.000
37.68000 382.000
37.72000 419.000
37.76000 419.000
37.80000 410.000
37.84000 363.000
37.88000 406.000
37.92000 427.000
37.96000 403.000
38.00000 402.000
38.04000 392.000
38.08000 418.000
38.12000 393.000
38.16000 396.000
38.20000 404.000
38.24000 414.000
38.28000 397.000
38.32000 489.000
38.36000 483.000
38.40000 525.000
38.44000 483.000
38.48000 513.000
38.52000 560.000
38.56000 625.000
38.60000 639.000
38.64000 598.000
38.68000 564.000
38.72000 551.000
38.76000 589.000
38.80000 511.000
38.84000 580.000
38.88000 549.000
38.92000 561.000
38.96000 572.000
39.00000 591.000
39.04000 499.000
39.08000 522.000
39.12000 474.000
39.16000 491.000
39.20000 474.000
39.24000 448.000
39.28000 438.000
39.32000 477.000
39.36000 469.000
39.40000 487.000
39.44000 547.000
39.48000 556.000
39.52000 508.000
39.56000 548.000
39.60000 544.000
39.64000 498.000
39.68000 445.000
39.72000 451.000
39.76000 401.000
39.80000 389.000
39.84000 372.000
39.88000 376.000
39.92000 383.000
39.96000 363.000
40.00000 360.000
40.04000 400.000
40.08000 366.000
40.12000 344.000
40.16000 346.000
40.20000 415.000
40.24000 360.000
40.28000 395.000
40.32000 384.000
40.36000 392.000
40.40000 398.000
40.44000 408.000
40.48000 377.000
40.52000 362.000
40.56000 378.000
40.60000 377.000
40.64000 385.000
40.68000 379.000
40.72000 376.000
40.76000 407.000
40.80000 380.000
40.84000 366.000
40.88000 378.000
40.92000 403.000
40.96000 335.000
41.00000 379.000
41.04000 377.000
41.08000 375.000
41.12000 441.000
41.16000 364.000
41.20000 413.000
41.24000 416.000
41.28000 401.000
41.32000 457.000
41.36000 535.000
41.40000 591.000
41.44000 680.000
41.48000 837.000
41.52000 1098.000
41.56000 1370.000
41.60000 1359.000
41.64000 1389.000
41.68000 1278.000
41.72000 1166.000
41.76000 953.000
41.80000 857.000
41.84000 678.000
41.88000 595.000
41.92000 517.000
41.96000 465.000
42.00000 476.000
42.04000 415.000
42.08000 413.000
42.12000 362.000
42.16000 413.000
42.20000 394.000
42.24000 394.000
42.28000 425.000
42.32000 400.000
42.36000 436.000
42.40000 428.000
42.44000 458.000
42.48000 469.000
42.52000 486.000
42.56000 562.000
42.60000 570.000
42.64000 653.000
42.68000 699.000
42.72000 638.000
42.76000 623.000
42.80000 590.000
42.84000 489.000
42.88000 459.000
42.92000 446.000
42.96000 408.000
43.00000 414.000
43.04000 398.000
43.08000 425.000
43.12000 452.000
43.16000 405.000
43.20000 449.000
43.24000 506.000
43.28000 537.000
43.32000 687.000
43.36000 770.000
43.40000 748.000
43.44000 675.000
43.48000 692.000
43.52000 516.000
43.56000 454.000
43.60000 469.000
43.64000 417.000
43.68000 367.000
43.72000 389.000
43.76000 390.000
43.80000 410.000
43.84000 361.000
43.88000 412.000
43.92000 372.000
43.96000 344.000
44.00000 398.000
44.04000 354.000
44.08000 357.000
44.12000 358.000
44.16000 362.000
44.20000 387.000
44.24000 360.000
44.28000 368.000
44.32000 391.000
44.36000 337.000
44.40000 383.000
44.44000 361.000
44.48000 391.000
44.52000 369.000
44.56000 359.000
44.60000 354.000
44.64000 362.000
44.68000 366.000
44.72000 374.000
44.76000 387.000
44.80000 398.000
44.84000 360.000
44.88000 421.000
44.92000 407.000
44.96000 418.000
45.00000 419.000
45.04000 401.000
45.08000 424.000
45.12000 339.000
45.16000 371.000
45.20000 363.000
45.24000 341.000
45.28000 362.000
45.32000 359.000
45.36000 358.000
45.40000 357.000
45.44000 341.000
45.48000 366.000
45.52000 395.000
45.56000 395.000
45.60000 458.000
45.64000 498.000
45.68000 553.000
45.72000 647.000
45.76000 637.000
45.80000 612.000
45.84000 527.000
45.88000 565.000
45.92000 496.000
45.96000 386.000
46.00000 380.000
46.04000 403.000
46.08000 359.000
46.12000 362.000
46.16000 327.000
46.20000 374.000
46.24000 344.000
46.28000 378.000
46.32000 358.000
46.36000 355.000
46.40000 350.000
46.44000 345.000
46.48000 362.000
46.52000 337.000
46.56000 366.000
46.60000 340.000
46.64000 338.000
46.68000 372.000
46.72000 359.000
46.76000 334.000
46.80000 322.000
46.84000 353.000
46.88000 362.000
46.92000 378.000
46.96000 390.000
47.00000 377.000
47.04000 387.000
47.08000 351.000
47.12000 362.000
47.16000 354.000
47.20000 330.000
47.24000 369.000
47.28000 378.000
47.32000 379.000
47.36000 416.000
47.40000 419.000
47.44000 345.000
47.48000 400.000
47.52000 409.000
47.56000 355.000
47.60000 421.000
47.64000 349.000
47.68000 384.000
47.72000 366.000
47.76000 329.000
47.80000 371.000
47.84000 335.000
47.88000 381.000
47.92000 401.000
47.96000 321.000
48.00000 358.000
48.04000 322.000
48.08000 371.000
48.12000 330.000
48.16000 304.000
48.20000 335.000
48.24000 317.000
48.28000 337.000
48.32000 333.000
48.36000 321.000
48.40000 340.000
48.44000 339.000
48.48000 317.000
48.52000 313.000
48.56000 312.000
48.60000 318.000
48.64000 287.000
48.68000 336.000
48.72000 314.000
48.76000 310.000
48.80000 310.000
48.84000 325.000
48.88000 323.000
48.92000 285.000
48.96000 356.000
49.00000 318.000
49.04000 288.000
49.08000 329.000
49.12000 329.000
49.16000 343.000
49.20000 341.000
49.24000 363.000
49.28000 384.000
49.32000 350.000
49.36000 377.000
49.40000 410.000
49.44000 380.000
49.48000 352.000
49.52000 350.000
49.56000 357.000
49.60000 370.000
49.64000 360.000
49.68000 415.000
49.72000 398.000
49.76000 441.000
49.80000 458.000
49.84000 463.000
49.88000 452.000
49.92000 471.000
49.96000 423.000
50.00000 407.000
50.04000 391.000
50.08000 322.000
50.12000 340.000
50.16000 311.000
50.20000 292.000
50.24000 347.000
50.28000 299.000
50.32000 283.000
50.36000 298.000
50.40000 329.000
50.44000 296.000
50.48000 283.000
50.52000 299.000
50.56000 333.000
50.60000 299.000
50.64000 324.000
50.68000 286.000
50.72000 287.000
50.76000 295.000
50.80000 308.000
50.84000 326.000
50.88000 287.000
50.92000 295.000
50.96000 278.000
51.00000 305.000
51.04000 338.000
51.08000 303.000
51.12000 267.000
51.16000 310.000
51.20000 312.000
51.24000 316.000
51.28000 313.000
51.32000 306.000
51.36000 292.000
51.40000 287.000
51.44000 309.000
51.48000 310.000
51.52000 325.000
51.56000 308.000
51.60000 312.000
51.64000 317.000
51.68000 309.000
51.72000 323.000
51.76000 300.000
51.80000 332.000
51.84000 301.000
51.88000 313.000
51.92000 344.000
51.96000 335.000
52.00000 340.000
52.04000 375.000
52.08000 337.000
52.12000 389.000
52.16000 447.000
52.20000 466.000
52.24000 484.000
52.28000 463.000
52.32000 445.000
52.36000 503.000
52.40000 438.000
52.44000 391.000
52.48000 435.000
52.52000 366.000
52.56000 398.000
52.60000 384.000
52.64000 342.000
52.68000 344.000
52.72000 334.000
52.76000 338.000
52.80000 323.000
52.84000 330.000
52.88000 316.000
52.92000 361.000
52.96000 357.000
53.00000 391.000
53.04000 387.000
53.08000 390.000
53.12000 363.000
53.16000 353.000
53.20000 347.000
53.24000 362.000
53.28000 340.000
53.32000 317.000
53.36000 271.000
53.40000 288.000
53.44000 295.000
53.48000 269.000
53.52000 314.000
53.56000 330.000
53.60000 321.000
53.64000 305.000
53.68000 306.000
53.72000 321.000
53.76000 337.000
53.80000 327.000
53.84000 371.000
53.88000 379.000
53.92000 408.000
53.96000 423.000
54.00000 429.000
54.04000 388.000
54.08000 421.000
54.12000 363.000
54.16000 400.000
54.20000 370.000
54.24000 336.000
54.28000 312.000
54.32000 305.000
54.36000 308.000
54.40000 310.000
54.44000 312.000
54.48000 335.000
54.52000 307.000
54.56000 311.000
54.60000 308.000
54.64000 337.000
54.68000 315.000
54.72000 282.000
54.76000 299.000
54.80000 298.000
54.84000 271.000
54.88000 327.000
54.92000 287.000
54.96000 308.000
55.00000 319.000
55.04000 277.000
55.08000 258.000
55.12000 316.000
55.16000 291.000
55.20000 293.000
55.24000 295.000
55.28000 276.000
55.32000 314.000
55.36000 294.000
55.40000 309.000
55.44000 293.000
55.48000 296.000
55.52000 325.000
55.56000 307.000
55.60000 294.000
55.64000 299.000
55.68000 285.000
55.72000 318.000
55.76000 297.000
55.80000 327.000
55.84000 295.000
55.88000 282.000
55.92000 295.000
55.96000 327.000
56.00000 301.000
56.04000 325.000
56.08000 356.000
56.12000 348.000
56.16000 351.000
56.20000 336.000
56.24000 346.000
56.28000 334.000
56.32000 351.000
56.36000 356.000
56.40000 361.000
56.44000 409.000
56.48000 353.000
56.52000 384.000
56.56000 379.000
56.60000 378.000
56.64000 356.000
56.68000 348.000
56.72000 376.000
56.76000 356.000
56.80000 336.000
56.84000 298.000
56.88000 296.000
56.92000 325.000
56.96000 342.000
57.00000 314.000
57.04000 310.000
57.08000 294.000
57.12000 299.000
57.16000 308.000
57.20000 304.000
57.24000 297.000
57.28000 309.000
57.32000 298.000
57.36000 271.000
57.40000 339.000
57.44000 274.000
57.48000 322.000
57.52000 314.000
57.56000 313.000
57.60000 292.000
57.64000 313.000
57.68000 332.000
57.72000 304.000
57.76000 297.000
57.80000 306.000
57.84000 318.000
57.88000 317.000
57.92000 297.000
57.96000 314.000
58.00000 315.000
58.04000 327.000
58.08000 314.000
58.12000 303.000
58.16000 314.000
58.20000 300.000
58.24000 332.000
58.28000 336.000
58.32000 377.000
58.36000 330.000
58.40000 342.000
58.44000 360.000
58.48000 346.000
58.52000 330.000
58.56000 345.000
58.60000 324.000
58.64000 293.000
58.68000 319.000
58.72000 325.000
58.76000 325.000
58.80000 319.000
58.84000 291.000
58.88000 351.000
58.92000 287.000
58.96000 295.000
59.00000 307.000
59.04000 337.000
59.08000 304.000
59.12000 307.000
59.16000 280.000
59.20000 275.000
59.24000 320.000
59.28000 294.000
59.32000 329.000
59.36000 305.000
59.40000 296.000
59.44000 294.000
59.48000 270.000
59.52000 283.000
59.56000 304.000
59.60000 300.000
59.64000 314.000
59.68000 338.000
59.72000 345.000
59.76000 341.000
59.80000 298.000
59.84000 301.000
59.88000 299.000
59.92000 292.000
