5.00000 4751.000
5.04000 4706.000
5.08000 4553.000
5.12000 4474.000
5.16000 4636.000
5.20000 4510.000
5.24000 4568.000
5.28000 4627.000
5.32000 4636.000
5.36000 4450.000
5.40000 4295.000
5.44000 4385.000
5.48000 4271.000
5.52000 4288.000
5.56000 4322.000
5.60000 4339.000
5.64000 4277.000
5.68000 4160.000
5.72000 4226.000
5.76000 3976.000
5.80000 4071.000
5.84000 4051.000
5.88000 3967.000
5.92000 3834.000
5.96000 3961.000
6.00000 3885.000
6.04000 3885.000
6.08000 3759.000
6.12000 3908.000
6.16000 3786.000
6.20000 3613.000
6.24000 3520.000
6.28000 3751.000
6.32000 3652.000
6.36000 3597.000
6.40000 3494.000
6.44000 3578.000
6.48000 3638.000
6.52000 3534.000
6.56000 3541.000
6.60000 3515.000
6.64000 3497.000
6.68000 3229.000
6.72000 3426.000
6.76000 3437.000
6.80000 3369.000
6.84000 3282.000
6.88000 3347.000
6.92000 3399.000
6.96000 3224.000
7.00000 3260.000
7.04000 3244.000
7.08000 3179.000
7.12000 3215.000
7.16000 3166.000
7.20000 3162.000
7.24000 3211.000
7.28000 3138.000
7.32000 3074.000
7.36000 3136.000
7.40000 2939.000
7.44000 2968.000
7.48000 3098.000
7.52000 2947.000
7.56000 2924.000
7.60000 2920.000
7.64000 3022.000
7.68000 2962.000
7.72000 2851.000
7.76000 2957.000
7.80000 2909.000
7.84000 2881.000
7.88000 2744.000
7.92000 2885.000
7.96000 2789.000
8.00000 2768.000
8.04000 2810.000
8.08000 2758.000
8.12000 2788.000
8.16000 2732.000
8.20000 2791.000
8.24000 2665.000
8.28000 2585.000
8.32000 2709.000
8.36000 2670.000
8.40000 2737.000
8.44000 2610.000
8.48000 2584.000
8.52000 2637.000
8.56000 2650.000
8.60000 2642.000
8.64000 2556.000
8.68000 2482.000
8.72000 2530.000
8.76000 2505.000
8.80000 2571.000
8.84000 2444.000
8.88000 2481.000
8.92000 2516.000
8.96000 2497.000
9.00000 2600.000
9.04000 2425.000
9.08000 2396.000
9.12000 2460.000
9.16000 2509.000
9.20000 2443.000
9.24000 2375.000
9.28000 2405.000
9.32000 2478.000
9.36000 2435.000
9.40000 2442.000
9.44000 2423.000
9.48000 2317.000
9.52000 2328.000
9.56000 2365.000
9.60000 2275.000
9.64000 2252.000
9.68000 2191.000
9.72000 2389.000
9.76000 2222.000
9.80000 2354.000
9.84000 2221.000
9.88000 2300.000
9.92000 2200.000
9.96000 2187.000
10.00000 2156.000
10.04000 2094.000
10.08000 2171.000
10.12000 2175.000
10.16000 2231.000
10.20000 2155.000
10.24000 2186.000
10.28000 2117.000
10.32000 2194.000
10.36000 2177.000
10.40000 2182.000
10.44000 2116.000
10.48000 2107.000
10.52000 2064.000
10.56000 2082.000
10.60000 2060.000
10.64000 2099.000
10.68000 2043.000
10.72000 1991.000
10.76000 2133.000
10.80000 2025.000
10.84000 2014.000
10.88000 2007.000
10.92000 2091.000
10.96000 2087.000
11.00000 2081.000
11.04000 1987.000
11.08000 2063.000
11.12000 2044.000
11.16000 2053.000
11.20000 2087.000
11.24000 1910.000
11.28000 1941.000
11.32000 1973.000
11.36000 1905.000
11.40000 2014.000
11.44000 1917.000
11.48000 1951.000
11.52000 1970.000
11.56000 1875.000
11.60000 1903.000
11.64000 2010.000
11.68000 1956.000
11.72000 1945.000
11.76000 1965.000
11.80000 1866.000
11.84000 1934.000
11.88000 1884.000
11.92000 1870.000
11.96000 1972.000
12.00000 1928.000
12.04000 1826.000
12.08000 1997.000
12.12000 1957.000
12.16000 1939.000
12.20000 1977.000
12.24000 1941.000
12.28000 1901.000
12.32000 1913.000
12.36000 1914.000
12.40000 1816.000
12.44000 1911.000
12.48000 1825.000
12.52000 1876.000
12.56000 1870.000
12.60000 1839.000
12.64000 1943.000
12.68000 1736.000
12.72000 1856.000
12.76000 1858.000
12.80000 1840.000
12.84000 1903.000
12.88000 1925.000
12.92000 1862.000
12.96000 1845.000
13.00000 1817.000
13.04000 1859.000
13.08000 1913.000
13.12000 1863.000
13.16000 1984.000
13.20000 1930.000
13.24000 1939.000
13.28000 1933.000
13.32000 1866.000
13.36000 1926.000
13.40000 1934.000
13.44000 1911.000
13.48000 1916.000
13.52000 1920.000
13.56000 1895.000
13.60000 1905.000
13.64000 1842.000
13.68000 1928.000
13.72000 2036.000
13.76000 1971.000
13.80000 2023.000
13.84000 1997.000
13.88000 2030.000
13.92000 2030.000
13.96000 2100.000
14.00000 2199.000
14.04000 2262.000
14.08000 2272.000
14.12000 2402.000
14.16000 2582.000
14.20000 2846.000
14.24000 3240.000
14.28000 3721.000
14.32000 4445.000
14.36000 5581.000
14.40000 7417.000
14.44000 10036.000
14.48000 13946.000
14.52000 17788.000
14.56000 22015.000
14.60000 25479.000
14.64000 27644.000
14.68000 27879.000
14.72000 26378.000
14.76000 23136.000
14.80000 18944.000
14.84000 14716.000
14.88000 10485.000
14.92000 6871.000
14.96000 4372.000
15.00000 2987.000
15.04000 2507.000
15.08000 2288.000
15.12000 2117.000
15.16000 2072.000
15.20000 2038.000
15.24000 2053.000
15.28000 2060.000
15.32000 1998.000
15.36000 1901.000
15.40000 1944.000
15.44000 2044.000
15.48000 2023.000
15.52000 2063.000
15.56000 1957.000
15.60000 2121.000
15.64000 2021.000
15.68000 1945.000
15.72000 2055.000
15.76000 2004.000
15.80000 1991.000
15.84000 1971.000
15.88000 1982.000
15.92000 2027.000
15.96000 2020.000
16.00000 1972.000
16.04000 2150.000
16.08000 1936.000
16.12000 2032.000
16.16000 2029.000
16.20000 2000.000
16.24000 2033.000
16.28000 2129.000
16.32000 2069.000
16.36000 2064.000
16.40000 1990.000
16.44000 2024.000
16.48000 2084.000
16.52000 2094.000
16.56000 2037.000
16.60000 2045.000
16.64000 2071.000
16.68000 1993.000
16.72000 2090.000
16.76000 2085.000
16.80000 2051.000
16.84000 2114.000
16.88000 2122.000
16.92000 2156.000
16.96000 2147.000
17.00000 2120.000
17.04000 1998.000
17.08000 2098.000
17.12000 2028.000
17.16000 2127.000
17.20000 2126.000
17.24000 2154.000
17.28000 2158.000
17.32000 2113.000
17.36000 2210.000
17.40000 2123.000
17.44000 2127.000
17.48000 2139.000
17.52000 2116.000
17.56000 2210.000
17.60000 2124.000
17.64000 2212.000
17.68000 2277.000
17.72000 2195.000
17.76000 2166.000
17.80000 2184.000
17.84000 2269.000
17.88000 2201.000
17.92000 2245.000
17.96000 2306.000
18.00000 2262.000
18.04000 2175.000
18.08000 2214.000
18.12000 2234.000
18.16000 2303.000
18.20000 2355.000
18.24000 2311.000
18.28000 2400.000
18.32000 2460.000
18.36000 2493.000
18.40000 2633.000
18.44000 2548.000
18.48000 2645.000
18.52000 2706.000
18.56000 2783.000
18.60000 2760.000
18.64000 2739.000
18.68000 2659.000
18.72000 2548.000
18.76000 2528.000
18.80000 2495.000
18.84000 2436.000
18.88000 2424.000
18.92000 2454.000
18.96000 2422.000
19.00000 2339.000
19.04000 2481.000
19.08000 2495.000
19.12000 2434.000
19.16000 2348.000
19.20000 2392.000
19.24000 2487.000
19.28000 2473.000
19.32000 2399.000
19.36000 2467.000
19.40000 2528.000
19.44000 2473.000
19.48000 2433.000
19.52000 2559.000
19.56000 2488.000
19.60000 2640.000
19.64000 2517.000
19.68000 2571.000
19.72000 2579.000
19.76000 2670.000
19.80000 2691.000
19.84000 2672.000
19.88000 2606.000
19.92000 2634.000
19.96000 2704.000
20.00000 2651.000
20.04000 2726.000
20.08000 2652.000
20.12000 2686.000
20.16000 2626.000
20.20000 2636.000
20.24000 2731.000
20.28000 2691.000
20.32000 2690.000
20.36000 2792.000
20.40000 2887.000
20.44000 2970.000
20.48000 3073.000
20.52000 3129.000
20.56000 3514.000
20.60000 3987.000
20.64000 4620.000
20.68000 5616.000
20.72000 6825.000
20.76000 8267.000
20.80000 9432.000
20.84000 10279.000
20.88000 10751.000
20.92000 10415.000
20.96000 9591.000
21.00000 8517.000
21.04000 7240.000
21.08000 6149.000
21.12000 4758.000
21.16000 4022.000
21.20000 3321.000
21.24000 3089.000
21.28000 3000.000
21.32000 2961.000
21.36000 3011.000
21.40000 2962.000
21.44000 2885.000
21.48000 3026.000
21.52000 2958.000
21.56000 3080.000
21.60000 3124.000
21.64000 3048.000
21.68000 2921.000
21.72000 2986.000
21.76000 3078.000
21.80000 3021.000
21.84000 2947.000
21.88000 2921.000
21.92000 2937.000
21.96000 2966.000
22.00000 2961.000
22.04000 3071.000
22.08000 2931.000
22.12000 2980.000
22.16000 3071.000
22.20000 2984.000
22.24000 3008.000
22.28000 2996.000
22.32000 2983.000
22.36000 3045.000
22.40000 3000.000
22.44000 3067.000
22.48000 2969.000
22.52000 3045.000
22.56000 3081.000
22.60000 3044.000
22.64000 3031.000
22.68000 3112.000
22.72000 3161.000
22.76000 3022.000
22.80000 3109.000
22.84000 3068.000
22.88000 3061.000
22.92000 2995.000
22.96000 3097.000
23.00000 3140.000
23.04000 3173.000
23.08000 3024.000
23.12000 3063.000
23.16000 3163.000
23.20000 3152.000
23.24000 3115.000
23.28000 3066.000
23.32000 3016.000
23.36000 3059.000
23.40000 3092.000
23.44000 3094.000
23.48000 3169.000
23.52000 3100.000
23.56000 3089.000
23.60000 3142.000
23.64000 3188.000
23.68000 3074.000
23.72000 2999.000
23.76000 3101.000
23.80000 3089.000
23.84000 3092.000
23.88000 3021.000
23.92000 3063.000
23.96000 3101.000
24.00000 3211.000
24.04000 3079.000
24.08000 3144.000
24.12000 2997.000
24.16000 3167.000
24.20000 3059.000
24.24000 3004.000
24.28000 3034.000
24.32000 3034.000
24.36000 3106.000
24.40000 3100.000
24.44000 3145.000
24.48000 2973.000
24.52000 3032.000
24.56000 3017.000
24.60000 2937.000
24.64000 3103.000
24.68000 2954.000
24.72000 2959.000
24.76000 3010.000
24.80000 3008.000
24.84000 3064.000
24.88000 3185.000
24.92000 3033.000
24.96000 3070.000
25.00000 3109.000
25.04000 3059.000
25.08000 3091.000
25.12000 3082.000
25.16000 3102.000
25.20000 3100.000
25.24000 3024.000
25.28000 2968.000
25.32000 3082.000
25.36000 3055.000
25.40000 3003.000
25.44000 3134.000
25.48000 3071.000
25.52000 3106.000
25.56000 3231.000
25.60000 3244.000
25.64000 3339.000
25.68000 3171.000
25.72000 3289.000
25.76000 3245.000
25.80000 3147.000
25.84000 3158.000
25.88000 2999.000
25.92000 2980.000
25.96000 2869.000
26.00000 3094.000
26.04000 2971.000
26.08000 2952.000
26.12000 3043.000
26.16000 3010.000
26.20000 2878.000
26.24000 2950.000
26.28000 2960.000
26.32000 2893.000
26.36000 2892.000
26.40000 2979.000
26.44000 2913.000
26.48000 2952.000
26.52000 2957.000
26.56000 2957.000
26.60000 2975.000
26.64000 2981.000
26.68000 2948.000
26.72000 2931.000
26.76000 2973.000
26.80000 2970.000
26.84000 2869.000
26.88000 2932.000
26.92000 2879.000
26.96000 2858.000
27.00000 2907.000
27.04000 2893.000
27.08000 2960.000
27.12000 2939.000
27.16000 2826.000
27.20000 2829.000
27.24000 2866.000
27.28000 2874.000
27.32000 2975.000
27.36000 2768.000
27.40000 2820.000
27.44000 2966.000
27.48000 2785.000
27.52000 2775.000
27.56000 2734.000
27.60000 2845.000
27.64000 2829.000
27.68000 2910.000
27.72000 2780.000
27.76000 2712.000
27.80000 2834.000
27.84000 2800.000
27.88000 2863.000
27.92000 2843.000
27.96000 2756.000
28.00000 2825.000
28.04000 2813.000
28.08000 2773.000
28.12000 2759.000
28.16000 2903.000
28.20000 2779.000
28.24000 2817.000
28.28000 2826.000
28.32000 2881.000
28.36000 2837.000
28.40000 2805.000
28.44000 2799.000
28.48000 2778.000
28.52000 2859.000
28.56000 2866.000
28.60000 2833.000
28.64000 2854.000
28.68000 2822.000
28.72000 2914.000
28.76000 2899.000
28.80000 2878.000
28.84000 2819.000
28.88000 2848.000
28.92000 2846.000
28.96000 2920.000
29.00000 2840.000
29.04000 2930.000
29.08000 2868.000
29.12000 2832.000
29.16000 2853.000
29.20000 2913.000
29.24000 2919.000
29.28000 2886.000
29.32000 3065.000
29.36000 3229.000
29.40000 3687.000
29.44000 4224.000
29.48000 5375.000
29.52000 6820.000
29.56000 8457.000
29.60000 10261.000
29.64000 11600.000
29.68000 12648.000
29.72000 12620.000
29.76000 12315.000
29.80000 11194.000
29.84000 9721.000
29.88000 7901.000
29.92000 6273.000
29.96000 4808.000
30.00000 3680.000
30.04000 3370.000
30.08000 3023.000
30.12000 2879.000
30.16000 2792.000
30.20000 2750.000
30.24000 2703.000
30.28000 2641.000
30.32000 2779.000
30.36000 2652.000
30.40000 2663.000
30.44000 2615.000
30.48000 2630.000
30.52000 2657.000
30.56000 2591.000
30.60000 2509.000
30.64000 2634.000
30.68000 2586.000
30.72000 2621.000
30.76000 2523.000
30.80000 2682.000
30.84000 2595.000
30.88000 2469.000
30.92000 2621.000
30.96000 2564.000
31.00000 2486.000
31.04000 2392.000
31.08000 2434.000
31.12000 2538.000
31.16000 2482.000
31.20000 2444.000
31.24000 2544.000
31.28000 2543.000
31.32000 2413.000
31.36000 2463.000
31.40000 2489.000
31.44000 2399.000
31.48000 2380.000
31.52000 2388.000
31.56000 2451.000
31.60000 2439.000
31.64000 2429.000
31.68000 2415.000
31.72000 2438.000
31.76000 2282.000
31.80000 2466.000
31.84000 2433.000
31.88000 2404.000
31.92000 2433.000
31.96000 2463.000
32.00000 2381.000
32.04000 2402.000
32.08000 2369.000
32.12000 2316.000
32.16000 2390.000
32.20000 2387.000
32.24000 2433.000
32.28000 2383.000
32.32000 2443.000
32.36000 2402.000
32.40000 2319.000
32.44000 2299.000
32.48000 2277.000
32.52000 2271.000
32.56000 2324.000
32.60000 2390.000
32.64000 2332.000
32.68000 2308.000
32.72000 2278.000
32.76000 2335.000
32.80000 2404.000
32.84000 2436.000
32.88000 2462.000
32.92000 2429.000
32.96000 2566.000
33.00000 2685.000
33.04000 2855.000
33.08000 3390.000
33.12000 4148.000
33.16000 5295.000
33.20000 6640.000
33.24000 8205.000
33.28000 9526.000
33.32000 10499.000
33.36000 10902.000
33.40000 10441.000
33.44000 10132.000
33.48000 8761.000
33.52000 7509.000
33.56000 6084.000
33.60000 4659.000
33.64000 3587.000
33.68000 2883.000
33.72000 2463.000
33.76000 2314.000
33.80000 2310.000
33.84000 2201.000
33.88000 2153.000
33.92000 2168.000
33.96000 2096.000
34.00000 2056.000
34.04000 2055.000
34.08000 1979.000
34.12000 1997.000
34.16000 1919.000
34.20000 1969.000
34.24000 2021.000
34.28000 1970.000
34.32000 2001.000
34.36000 1879.000
34.40000 1945.000
34.44000 2014.000
34.48000 2017.000
34.52000 1914.000
34.56000 1894.000
34.60000 1829.000
34.64000 1910.000
34.68000 1977.000
34.72000 1857.000
34.76000 1889.000
34.80000 1885.000
34.84000 1863.000
34.88000 1886.000
34.92000 1837.000
34.96000 1780.000
35.00000 1822.000
35.04000 1754.000
35.08000 1771.000
35.12000 1806.000
35.16000 1827.000
35.20000 1849.000
35.24000 1701.000
35.28000 1762.000
35.32000 1785.000
35.36000 1772.000
35.40000 1761.000
35.44000 1786.000
35.48000 1729.000
35.52000 1748.000
35.56000 1756.000
35.60000 1689.000
35.64000 1519.000
35.68000 1631.000
35.72000 1683.000
35.76000 1660.000
35.80000 1761.000
35.84000 1708.000
35.88000 1784.000
35.92000 1689.000
35.96000 1638.000
36.00000 1673.000
36.04000 1653.000
36.08000 1676.000
36.12000 1653.000
36.16000 1705.000
36.20000 1659.000
36.24000 1678.000
36.28000 1729.000
36.32000 1704.000
36.36000 1787.000
36.40000 1808.000
36.44000 1890.000
36.48000 2007.000
36.52000 2261.000
36.56000 2460.000
36.60000 2710.000
36.64000 2943.000
36.68000 2919.000
36.72000 2922.000
36.76000 2724.000
36.80000 2650.000
36.84000 2395.000
36.88000 2265.000
36.92000 1953.000
36.96000 1843.000
37.00000 1607.000
37.04000 1698.000
37.08000 1638.000
37.12000 1535.000
37.16000 1629.000
37.20000 1505.000
37.24000 1576.000
37.28000 1495.000
37.32000 1557.000
37.36000 1546.000
37.40000 1647.000
37.44000 1671.000
37.48000 1660.000
37.52000 1714.000
37.56000 1806.000
37.60000 1859.000
37.64000 1820.000
37.68000 1775.000
37.72000 1774.000
37.76000 1703.000
37.80000 1723.000
37.84000 1681.000
37.88000 1589.000
37.92000 1545.000
37.96000 1606.000
38.00000 1499.000
38.04000 1509.000
38.08000 1473.000
38.12000 1474.000
38.16000 1482.000
38.20000 1428.000
38.24000 1508.000
38.28000 1506.000
38.32000 1528.000
38.36000 1435.000
38.40000 1471.000
38.44000 1389.000
38.48000 1526.000
38.52000 1409.000
38.56000 1483.000
38.60000 1440.000
38.64000 1445.000
38.68000 1459.000
38.72000 1397.000
38.76000 1403.000
38.80000 1416.000
38.84000 1448.000
38.88000 1386.000
38.92000 1385.000
38.96000 1379.000
39.00000 1340.000
39.04000 1358.000
39.08000 1394.000
39.12000 1385.000
39.16000 1358.000
39.20000 1363.000
39.24000 1438.000
39.28000 1358.000
39.32000 1370.000
39.36000 1410.000
39.40000 1327.000
39.44000 1357.000
39.48000 1376.000
39.52000 1354.000
39.56000 1359.000
39.60000 1367.000
39.64000 1399.000
39.68000 1327.000
39.72000 1361.000
39.76000 1441.000
39.80000 1453.000
39.84000 1346.000
39.88000 1379.000
39.92000 1391.000
39.96000 1324.000
40.00000 1409.000
40.04000 1330.000
40.08000 1340.000
40.12000 1424.000
40.16000 1315.000
40.20000 1333.000
40.24000 1312.000
40.28000 1337.000
40.32000 1373.000
40.36000 1370.000
40.40000 1413.000
40.44000 1428.000
40.48000 1345.000
40.52000 1360.000
40.56000 1355.000
40.60000 1422.000
40.64000 1394.000
40.68000 1403.000
40.72000 1399.000
40.76000 1446.000
40.80000 1442.000
40.84000 1386.000
40.88000 1430.000
40.92000 1420.000
40.96000 1415.000
41.00000 1382.000
41.04000 1433.000
41.08000 1434.000
41.12000 1367.000
41.16000 1422.000
41.20000 1356.000
41.24000 1391.000
41.28000 1444.000
41.32000 1433.000
41.36000 1303.000
41.40000 1412.000
41.44000 1440.000
41.48000 1424.000
41.52000 1380.000
41.56000 1431.000
41.60000 1417.000
41.64000 1366.000
41.68000 1430.000
41.72000 1422.000
41.76000 1422.000
41.80000 1378.000
41.84000 1429.000
41.88000 1398.000
41.92000 1426.000
41.96000 1347.000
42.00000 1464.000
42.04000 1457.000
42.08000 1437.000
42.12000 1514.000
42.16000 1453.000
42.20000 1459.000
42.24000 1611.000
42.28000 1613.000
42.32000 1845.000
42.36000 2042.000
42.40000 2438.000
42.44000 2962.000
42.48000 3534.000
42.52000 3976.000
42.56000 4723.000
42.60000 4961.000
42.64000 5165.000
42.68000 5269.000
42.72000 4880.000
42.76000 4498.000
42.80000 3789.000
42.84000 3182.000
42.88000 2687.000
42.92000 2265.000
42.96000 1998.000
43.00000 1727.000
43.04000 1552.000
43.08000 1478.000
43.12000 1486.000
43.16000 1427.000
43.20000 1406.000
43.24000 1440.000
43.28000 1400.000
43.32000 1435.000
43.36000 1402.000
43.40000 1459.000
43.44000 1346.000
43.48000 1420.000
43.52000 1409.000
43.56000 1385.000
43.60000 1453.000
43.64000 1377.000
43.68000 1400.000
43.72000 1400.000
43.76000 1375.000
43.80000 1374.000
43.84000 1344.000
43.88000 1370.000
43.92000 1413.000
43.96000 1336.000
44.00000 1362.000
44.04000 1323.000
44.08000 1383.000
44.12000 1369.000
44.16000 1413.000
44.20000 1381.000
44.24000 1367.000
44.28000 1354.000
44.32000 1340.000
44.36000 1270.000
44.40000 1333.000
44.44000 1377.000
44.48000 1386.000
44.52000 1358.000
44.56000 1319.000
44.60000 1408.000
44.64000 1394.000
44.68000 1337.000
44.72000 1354.000
44.76000 1343.000
44.80000 1317.000
44.84000 1367.000
44.88000 1497.000
44.92000 1434.000
44.96000 1450.000
45.00000 1480.000
45.04000 1528.000
45.08000 1698.000
45.12000 1923.000
45.16000 2191.000
45.20000 2564.000
45.24000 2882.000
45.28000 3201.000
45.32000 3472.000
45.36000 3627.000
45.40000 3526.000
45.44000 3364.000
45.48000 3146.000
45.52000 2767.000
45.56000 2515.000
45.60000 2188.000
45.64000 1871.000
45.68000 1731.000
45.72000 1511.000
45.76000 1422.000
45.80000 1408.000
45.84000 1351.000
45.88000 1297.000
45.92000 1420.000
45.96000 1273.000
46.00000 1378.000
46.04000 1287.000
46.08000 1287.000
46.12000 1363.000
46.16000 1327.000
46.20000 1292.000
46.24000 1299.000
46.28000 1317.000
46.32000 1307.000
46.36000 1258.000
46.40000 1264.000
46.44000 1283.000
46.48000 1273.000
46.52000 1201.000
46.56000 1193.000
46.60000 1259.000
46.64000 1279.000
46.68000 1269.000
46.72000 1225.000
46.76000 1308.000
46.80000 1289.000
46.84000 1166.000
46.88000 1354.000
46.92000 1265.000
46.96000 1240.000
47.00000 1255.000
47.04000 1314.000
47.08000 1267.000
47.12000 1238.000
47.16000 1240.000
47.20000 1268.000
47.24000 1292.000
47.28000 1217.000
47.32000 1244.000
47.36000 1240.000
47.40000 1251.000
47.44000 1227.000
47.48000 1272.000
47.52000 1219.000
47.56000 1225.000
47.60000 1297.000
47.64000 1304.000
47.68000 1277.000
47.72000 1387.000
47.76000 1346.000
47.80000 1504.000
47.84000 1486.000
47.88000 1564.000
47.92000 1601.000
47.96000 1549.000
48.00000 1544.000
48.04000 1466.000
48.08000 1437.000
48.12000 1382.000
48.16000 1374.000
48.20000 1272.000
48.24000 1285.000
48.28000 1186.000
48.32000 1252.000
48.36000 1228.000
48.40000 1201.000
48.44000 1199.000
48.48000 1149.000
48.52000 1256.000
48.56000 1221.000
48.60000 1173.000
48.64000 1240.000
48.68000 1154.000
48.72000 1202.000
48.76000 1201.000
48.80000 1204.000
48.84000 1221.000
48.88000 1193.000
48.92000 1113.000
48.96000 1216.000
49.00000 1209.000
49.04000 1107.000
49.08000 1178.000
49.12000 1199.000
49.16000 1202.000
49.20000 1160.000
49.24000 1178.000
49.28000 1169.000
49.32000 1145.000
49.36000 1125.000
49.40000 1192.000
49.44000 1180.000
49.48000 1163.000
49.52000 1120.000
49.56000 1145.000
49.60000 1089.000
49.64000 1184.000
49.68000 1139.000
49.72000 1153.000
49.76000 1094.000
49.80000 1185.000
49.84000 1114.000
49.88000 1195.000
49.92000 1161.000
49.96000 1151.000
50.00000 1111.000
50.04000 1138.000
50.08000 1147.000
50.12000 1141.000
50.16000 1176.000
50.20000 1147.000
50.24000 1104.000
50.28000 1141.000
50.32000 1108.000
50.36000 1129.000
50.40000 1066.000
50.44000 1236.000
50.48000 1187.000
50.52000 1147.000
50.56000 1135.000
50.60000 1075.000
50.64000 1136.000
50.68000 1165.000
50.72000 1109.000
50.76000 1143.000
50.80000 1157.000
50.84000 1108.000
50.88000 1111.000
50.92000 1187.000
50.96000 1134.000
51.00000 1106.000
51.04000 1147.000
51.08000 1125.000
51.12000 1100.000
51.16000 1175.000
51.20000 1156.000
51.24000 1114.000
51.28000 1089.000
51.32000 1173.000
51.36000 1133.000
51.40000 1134.000
51.44000 1115.000
51.48000 1114.000
51.52000 1184.000
51.56000 1114.000
51.60000 1095.000
51.64000 1116.000
51.68000 1127.000
51.72000 1113.000
51.76000 1153.000
51.80000 1121.000
51.84000 1078.000
51.88000 1165.000
51.92000 1115.000
51.96000 1116.000
52.00000 1148.000
52.04000 1129.000
52.08000 1134.000
52.12000 1142.000
52.16000 1104.000
52.20000 1106.000
52.24000 1167.000
52.28000 1122.000
52.32000 1105.000
52.36000 1130.000
52.40000 1131.000
52.44000 1120.000
52.48000 1108.000
52.52000 1101.000
52.56000 1175.000
52.60000 1223.000
52.64000 1198.000
52.68000 1182.000
52.72000 1257.000
52.76000 1431.000
52.80000 1211.000
52.84000 1506.000
52.88000 1520.000
52.92000 1546.000
52.96000 1516.000
53.00000 1506.000
53.04000 1468.000
53.08000 1463.000
53.12000 1265.000
53.16000 1255.000
53.20000 1291.000
53.24000 1192.000
53.28000 1171.000
53.32000 1150.000
53.36000 1137.000
53.40000 1190.000
53.44000 1141.000
53.48000 1103.000
53.52000 1152.000
53.56000 1116.000
53.60000 1125.000
53.64000 1070.000
53.68000 1153.000
53.72000 1069.000
53.76000 1109.000
53.80000 1167.000
53.84000 1128.000
53.88000 1122.000
53.92000 1114.000
53.96000 1110.000
54.00000 1142.000
54.04000 1069.000
54.08000 1180.000
54.12000 1165.000
54.16000 1082.000
54.20000 1149.000
54.24000 1131.000
54.28000 1104.000
54.32000 1140.000
54.36000 1168.000
54.40000 1116.000
54.44000 1039.000
54.48000 1122.000
54.52000 1111.000
54.56000 1093.000
54.60000 1153.000
54.64000 1115.000
54.68000 1131.000
54.72000 1125.000
54.76000 1115.000
54.80000 1118.000
54.84000 1116.000
54.88000 1147.000
54.92000 1248.000
54.96000 1265.000
55.00000 1313.000
55.04000 1441.000
55.08000 1547.000
55.12000 1589.000
55.16000 1703.000
55.20000 1805.000
55.24000 1836.000
55.28000 1746.000
55.32000 1704.000
55.36000 1651.000
55.40000 1608.000
55.44000 1561.000
55.48000 1440.000
55.52000 1335.000
55.56000 1277.000
55.60000 1205.000
55.64000 1187.000
55.68000 1100.000
55.72000 1120.000
55.76000 1136.000
55.80000 1129.000
55.84000 1166.000
55.88000 1153.000
55.92000 1116.000
55.96000 1170.000
56.00000 1099.000
56.04000 1116.000
56.08000 1135.000
56.12000 1070.000
56.16000 1110.000
56.20000 1186.000
56.24000 1107.000
56.28000 1145.000
56.32000 1068.000
56.36000 1131.000
56.40000 1168.000
56.44000 1105.000
56.48000 1064.000
56.52000 1105.000
56.56000 1167.000
56.60000 1172.000
56.64000 1150.000
56.68000 1123.000
56.72000 1151.000
56.76000 1049.000
56.80000 1127.000
56.84000 1117.000
56.88000 1114.000
56.92000 1163.000
56.96000 1112.000
57.00000 1058.000
57.04000 1176.000
57.08000 1138.000
57.12000 1104.000
57.16000 1097.000
57.20000 1225.000
57.24000 1228.000
57.28000 1163.000
57.32000 1237.000
57.36000 1284.000
57.40000 1304.000
57.44000 1408.000
57.48000 1343.000
57.52000 1368.000
57.56000 1403.000
57.60000 1404.000
57.64000 1392.000
57.68000 1277.000
57.72000 1325.000
57.76000 1254.000
57.80000 1309.000
57.84000 1241.000
57.88000 1297.000
57.92000 1184.000
57.96000 1235.000
58.00000 1185.000
58.04000 1154.000
58.08000 1147.000
58.12000 1175.000
58.16000 1178.000
58.20000 1161.000
58.24000 1131.000
58.28000 1072.000
58.32000 1143.000
58.36000 1185.000
58.40000 1071.000
58.44000 1124.000
58.48000 1043.000
58.52000 1098.000
58.56000 1117.000
58.60000 1043.000
58.64000 1180.000
58.68000 1046.000
58.72000 1093.000
58.76000 1149.000
58.80000 1129.000
58.84000 1123.000
58.88000 1102.000
58.92000 1138.000
58.96000 1069.000
59.00000 1096.000
59.04000 1129.000
59.08000 1014.000
59.12000 1085.000
59.16000 1101.000
59.20000 1192.000
59.24000 1119.000
59.28000 1065.000
59.32000 1072.000
59.36000 1119.000
59.40000 1109.000
59.44000 1109.000
59.48000 1156.000
59.52000 1141.000
59.56000 1111.000
59.60000 1092.000
59.64000 1089.000
59.68000 1111.000
59.72000 1087.000
59.76000 1090.000
59.80000 1116.000
59.84000 1139.000
59.88000 1078.000
59.92000 1170.000
59.96000 1058.000
60.00000 1102.000
60.04000 1061.000
60.08000 1124.000
60.12000 1160.000
60.16000 1101.000
60.20000 1147.000
60.24000 1019.000
60.28000 1097.000
60.32000 1158.000
60.36000 1135.000
60.40000 1169.000
60.44000 1097.000
60.48000 1107.000
60.52000 1120.000
60.56000 1073.000
60.60000 1109.000
60.64000 1142.000
60.68000 1091.000
60.72000 1121.000
60.76000 1132.000
60.80000 1080.000
60.84000 1062.000
60.88000 1137.000
60.92000 1128.000
60.96000 1125.000
61.00000 1112.000
61.04000 1158.000
61.08000 1097.000
61.12000 1137.000
61.16000 1059.000
61.20000 1134.000
61.24000 1101.000
61.28000 1146.000
61.32000 1178.000
61.36000 1180.000
61.40000 1110.000
61.44000 1165.000
61.48000 1145.000
61.52000 1210.000
61.56000 1166.000
61.60000 1216.000
61.64000 1245.000
61.68000 1233.000
61.72000 1261.000
61.76000 1332.000
61.80000 1399.000
61.84000 1371.000
61.88000 1310.000
61.92000 1350.000
61.96000 1316.000
62.00000 1262.000
62.04000 1224.000
62.08000 1163.000
62.12000 1107.000
62.16000 1177.000
62.20000 1059.000
62.24000 1136.000
62.28000 1139.000
62.32000 1108.000
62.36000 1082.000
62.40000 1136.000
62.44000 1115.000
62.48000 1133.000
62.52000 1121.000
62.56000 1084.000
62.60000 1062.000
62.64000 1124.000
62.68000 1166.000
62.72000 1063.000
62.76000 1168.000
62.80000 1105.000
62.84000 1149.000
62.88000 1116.000
62.92000 1084.000
62.96000 1203.000
63.00000 1169.000
63.04000 1076.000
63.08000 1132.000
63.12000 1139.000
63.16000 1167.000
63.20000 1061.000
63.24000 1150.000
63.28000 1127.000
63.32000 1115.000
63.36000 1135.000
63.40000 1151.000
63.44000 1053.000
63.48000 1052.000
63.52000 1081.000
63.56000 1130.000
63.60000 1111.000
63.64000 1132.000
63.68000 1194.000
63.72000 1334.000
63.76000 1251.000
63.80000 1388.000
63.84000 1448.000
63.88000 1545.000
63.92000 1608.000
63.96000 1572.000
64.00000 1712.000
64.04000 1676.000
64.08000 1622.000
64.12000 1553.000
64.16000 1468.000
64.20000 1453.000
64.24000 1340.000
64.28000 1316.000
64.32000 1282.000
64.36000 1224.000
64.40000 1145.000
64.44000 1090.000
64.48000 1174.000
64.52000 1105.000
64.56000 1131.000
64.60000 1062.000
64.64000 1096.000
64.68000 1065.000
64.72000 1074.000
64.76000 1131.000
64.80000 1053.000
64.84000 1028.000
64.88000 1048.000
64.92000 1090.000
64.96000 1079.000
65.00000 1112.000
65.04000 1019.000
65.08000 1025.000
65.12000 1042.000
65.16000 1060.000
65.20000 1065.000
65.24000 1035.000
65.28000 1063.000
65.32000 1083.000
65.36000 1011.000
65.40000 1094.000
65.44000 1051.000
65.48000 1025.000
65.52000 1027.000
65.56000 1049.000
65.60000 1059.000
65.64000 1071.000
65.68000 1053.000
65.72000 1075.000
65.76000 1042.000
65.80000 1081.000
65.84000 1095.000
65.88000 1111.000
65.92000 1198.000
65.96000 1155.000
66.00000 1223.000
66.04000 1215.000
66.08000 1230.000
66.12000 1175.000
66.16000 1201.000
66.20000 1248.000
66.24000 1135.000
66.28000 1142.000
66.32000 1083.000
66.36000 1178.000
66.40000 1108.000
66.44000 1037.000
66.48000 1040.000
66.52000 1069.000
66.56000 1060.000
66.60000 1009.000
66.64000 1053.000
66.68000 998.000
66.72000 1032.000
66.76000 1013.000
66.80000 1036.000
66.84000 958.000
66.88000 1004.000
66.92000 1073.000
66.96000 971.000
67.00000 968.000
67.04000 1004.000
67.08000 987.000
67.12000 1019.000
67.16000 1000.000
67.20000 1001.000
67.24000 1072.000
67.28000 1021.000
67.32000 1045.000
67.36000 1014.000
67.40000 931.000
67.44000 1029.000
67.48000 1021.000
67.52000 1040.000
67.56000 984.000
67.60000 980.000
67.64000 1011.000
67.68000 1047.000
67.72000 1049.000
67.76000 962.000
67.80000 1010.000
67.84000 985.000
67.88000 1000.000
67.92000 953.000
67.96000 991.000
68.00000 984.000
68.04000 968.000
68.08000 1034.000
68.12000 1007.000
68.16000 955.000
68.20000 991.000
68.24000 971.000
68.28000 1033.000
68.32000 941.000
68.36000 1035.000
68.40000 1025.000
68.44000 1033.000
68.48000 931.000
68.52000 940.000
68.56000 970.000
68.60000 944.000
68.64000 991.000
68.68000 960.000
68.72000 979.000
68.76000 1003.000
68.80000 955.000
68.84000 959.000
68.88000 1076.000
68.92000 1001.000
68.96000 1006.000
69.00000 1011.000
69.04000 937.000
69.08000 1004.000
69.12000 967.000
69.16000 1008.000
69.20000 1003.000
69.24000 981.000
69.28000 964.000
69.32000 956.000
69.36000 1002.000
69.40000 956.000
69.44000 989.000
69.48000 979.000
69.52000 1005.000
69.56000 1005.000
69.60000 986.000
69.64000 887.000
69.68000 955.000
69.72000 977.000
69.76000 953.000
69.80000 919.000
69.84000 1006.000
69.88000 1067.000
69.92000 1090.000
