5.00000 5378.000
5.04000 5314.000
5.08000 5356.000
5.12000 5153.000
5.16000 5196.000
5.20000 5402.000
5.24000 5056.000
5.28000 5118.000
5.32000 5149.000
5.36000 5037.000
5.40000 5023.000
5.44000 5008.000
5.48000 5045.000
5.52000 4950.000
5.56000 5042.000
5.60000 4845.000
5.64000 4772.000
5.68000 4896.000
5.72000 4816.000
5.76000 4766.000
5.80000 4708.000
5.84000 4734.000
5.88000 4597.000
5.92000 4655.000
5.96000 4582.000
6.00000 4488.000
6.04000 4553.000
6.08000 4548.000
6.12000 4321.000
6.16000 4513.000
6.20000 4371.000
6.24000 4398.000
6.28000 4215.000
6.32000 4246.000
6.36000 4207.000
6.40000 4309.000
6.44000 4215.000
6.48000 4189.000
6.52000 4185.000
6.56000 4090.000
6.60000 4109.000
6.64000 4149.000
6.68000 4106.000
6.72000 4038.000
6.76000 3925.000
6.80000 4040.000
6.84000 3960.000
6.88000 3908.000
6.92000 3936.000
6.96000 3856.000
7.00000 3870.000
7.04000 3705.000
7.08000 3787.000
7.12000 3953.000
7.16000 3841.000
7.20000 3851.000
7.24000 3807.000
7.28000 3804.000
7.32000 3722.000
7.36000 3594.000
7.40000 3729.000
7.44000 3556.000
7.48000 3509.000
7.52000 3431.000
7.56000 3535.000
7.60000 3506.000
7.64000 3582.000
7.68000 3510.000
7.72000 3462.000
7.76000 3520.000
7.80000 3457.000
7.84000 3481.000
7.88000 3408.000
7.92000 3460.000
7.96000 3415.000
8.00000 3446.000
8.04000 3436.000
8.08000 3321.000
8.12000 3381.000
8.16000 3405.000
8.20000 3242.000
8.24000 3222.000
8.28000 3161.000
8.32000 3276.000
8.36000 3203.000
8.40000 3100.000
8.44000 3220.000
8.48000 3250.000
8.52000 3197.000
8.56000 3135.000
8.60000 3062.000
8.64000 3191.000
8.68000 3161.000
8.72000 3069.000
8.76000 3009.000
8.80000 3009.000
8.84000 3050.000
8.88000 3042.000
8.92000 3089.000
8.96000 3031.000
9.00000 3126.000
9.04000 3000.000
9.08000 2979.000
9.12000 2994.000
9.16000 2917.000
9.20000 3013.000
9.24000 2827.000
9.28000 2885.000
9.32000 2827.000
9.36000 2894.000
9.40000 2860.000
9.44000 2981.000
9.48000 2828.000
9.52000 2884.000
9.56000 2787.000
9.60000 2886.000
9.64000 2757.000
9.68000 2770.000
9.72000 2807.000
9.76000 2739.000
9.80000 2625.000
9.84000 2730.000
9.88000 2752.000
9.92000 2736.000
9.96000 2783.000
10.00000 2817.000
10.04000 2637.000
10.08000 2714.000
10.12000 2766.000
10.16000 2702.000
10.20000 2686.000
10.24000 2644.000
10.28000 2608.000
10.32000 2767.000
10.36000 2777.000
10.40000 2618.000
10.44000 2658.000
10.48000 2656.000
10.52000 2719.000
10.56000 2597.000
10.60000 2655.000
10.64000 2669.000
10.68000 2662.000
10.72000 2726.000
10.76000 2680.000
10.80000 2550.000
10.84000 2591.000
10.88000 2664.000
10.92000 2693.000
10.96000 2650.000
11.00000 2619.000
11.04000 2674.000
11.08000 2784.000
11.12000 2826.000
11.16000 2843.000
11.20000 2792.000
11.24000 3050.000
11.28000 3120.000
11.32000 3292.000
11.36000 3432.000
11.40000 3689.000
11.44000 3928.000
11.48000 4035.000
11.52000 3960.000
11.56000 4208.000
11.60000 4221.000
11.64000 4214.000
11.68000 4399.000
11.72000 4392.000
11.76000 4496.000
11.80000 4884.000
11.84000 4877.000
11.88000 5302.000
11.92000 6001.000
11.96000 6667.000
12.00000 7615.000
12.04000 8353.000
12.08000 9316.000
12.12000 10134.000
12.16000 10767.000
12.20000 11365.000
12.24000 11448.000
12.28000 11923.000
12.32000 12164.000
12.36000 12794.000
12.40000 14205.000
12.44000 16079.000
12.48000 18222.000
12.52000 19814.000
12.56000 21689.000
12.60000 22542.000
12.64000 22256.000
12.68000 21199.000
12.72000 19243.000
12.76000 17100.000
12.80000 14259.000
12.84000 11534.000
12.88000 9437.000
12.92000 7620.000
12.96000 6465.000
13.00000 5733.000
13.04000 5211.000
13.08000 4876.000
13.12000 4789.000
13.16000 4580.000
13.20000 4501.000
13.24000 4436.000
13.28000 4475.000
13.32000 4533.000
13.36000 4519.000
13.40000 4509.000
13.44000 4487.000
13.48000 4701.000
13.52000 4816.000
13.56000 4870.000
13.60000 5137.000
13.64000 5568.000
13.68000 5823.000
13.72000 6198.000
13.76000 6725.000
13.80000 7190.000
13.84000 7732.000
13.88000 8156.000
13.92000 8443.000
13.96000 8501.000
14.00000 8266.000
14.04000 8100.000
14.08000 7283.000
14.12000 6600.000
14.16000 5799.000
14.20000 5042.000
14.24000 4434.000
14.28000 4063.000
14.32000 3615.000
14.36000 3289.000
14.40000 2946.000
14.44000 3035.000
14.48000 2874.000
14.52000 2625.000
14.56000 2625.000
14.60000 2498.000
14.64000 2438.000
14.68000 2405.000
14.72000 2410.000
14.76000 2288.000
14.80000 2339.000
14.84000 2292.000
14.88000 2161.000
14.92000 2089.000
14.96000 2100.000
15.00000 2037.000
15.04000 2057.000
15.08000 2117.000
15.12000 1983.000
15.16000 2037.000
15.20000 2063.000
15.24000 1993.000
15.28000 1905.000
15.32000 2017.000
15.36000 2062.000
15.40000 1995.000
15.44000 2002.000
15.48000 2010.000
15.52000 2028.000
15.56000 1980.000
15.60000 2046.000
15.64000 1936.000
15.68000 1877.000
15.72000 1934.000
15.76000 2051.000
15.80000 1876.000
15.84000 1906.000
15.88000 1945.000
15.92000 1954.000
15.96000 1962.000
16.00000 1949.000
16.04000 1983.000
16.08000 1957.000
16.12000 1942.000
16.16000 1895.000
16.20000 1976.000
16.24000 1916.000
16.28000 1988.000
16.32000 1974.000
16.36000 1978.000
16.40000 1963.000
16.44000 2032.000
16.48000 1970.000
16.52000 2049.000
16.56000 1940.000
16.60000 1910.000
16.64000 1945.000
16.68000 1875.000
16.72000 1962.000
16.76000 1917.000
16.80000 1886.000
16.84000 1888.000
16.88000 1919.000
16.92000 1991.000
16.96000 1941.000
17.00000 1916.000
17.04000 2002.000
17.08000 1981.000
17.12000 2011.000
17.16000 1978.000
17.20000 1928.000
17.24000 1942.000
17.28000 1868.000
17.32000 1936.000
17.36000 2003.000
17.40000 1947.000
17.44000 1928.000
17.48000 1966.000
17.52000 2009.000
17.56000 1960.000
17.60000 1942.000
17.64000 1974.000
17.68000 2035.000
17.72000 1983.000
17.76000 1947.000
17.80000 1987.000
17.84000 1998.000
17.88000 1959.000
17.92000 1988.000
17.96000 1997.000
18.00000 2012.000
18.04000 1953.000
18.08000 2056.000
18.12000 2108.000
18.16000 1960.000
18.20000 2005.000
18.24000 2049.000
18.28000 2012.000
18.32000 1897.000
18.36000 2047.000
18.40000 2037.000
18.44000 1972.000
18.48000 1978.000
18.52000 2094.000
18.56000 2051.000
18.60000 2049.000
18.64000 2043.000
18.68000 2079.000
18.72000 2032.000
18.76000 1996.000
18.80000 2060.000
18.84000 1998.000
18.88000 2117.000
18.92000 2115.000
18.96000 2029.000
19.00000 2113.000
19.04000 2079.000
19.08000 2172.000
19.12000 2110.000
19.16000 2085.000
19.20000 2191.000
19.24000 2060.000
19.28000 2105.000
19.32000 2237.000
19.36000 2198.000
19.40000 2147.000
19.44000 2156.000
19.48000 2317.000
19.52000 2220.000
19.56000 2276.000
19.60000 2312.000
19.64000 2380.000
19.68000 2565.000
19.72000 2588.000
19.76000 2703.000
19.80000 2849.000
19.84000 2984.000
19.88000 3069.000
19.92000 3136.000
19.96000 3042.000
20.00000 3133.000
20.04000 2972.000
20.08000 2865.000
20.12000 2831.000
20.16000 2632.000
20.20000 2570.000
20.24000 2431.000
20.28000 2377.000
20.32000 2315.000
20.36000 2279.000
20.40000 2286.000
20.44000 2289.000
20.48000 2275.000
20.52000 2340.000
20.56000 2316.000
20.60000 2289.000
20.64000 2288.000
20.68000 2267.000
20.72000 2263.000
20.76000 2354.000
20.80000 2324.000
20.84000 2339.000
20.88000 2375.000
20.92000 2318.000
20.96000 2273.000
21.00000 2360.000
21.04000 2371.000
21.08000 2361.000
21.12000 2428.000
21.16000 2438.000
21.20000 2409.000
21.24000 2378.000
21.28000 2397.000
21.32000 2378.000
21.36000 2319.000
21.40000 2434.000
21.44000 2487.000
21.48000 2381.000
21.52000 2353.000
21.56000 2452.000
21.60000 2469.000
21.64000 2413.000
21.68000 2406.000
21.72000 2392.000
21.76000 2404.000
21.80000 2492.000
21.84000 2397.000
21.88000 2459.000
21.92000 2480.000
21.96000 2546.000
22.00000 2481.000
22.04000 2480.000
22.08000 2466.000
22.12000 2458.000
22.16000 2456.000
22.20000 2528.000
22.24000 2536.000
22.28000 2574.000
22.32000 2437.000
22.36000 2543.000
22.40000 2556.000
22.44000 2609.000
22.48000 2688.000
22.52000 2605.000
22.56000 2696.000
22.60000 2720.000
22.64000 2865.000
22.68000 2902.000
22.72000 2838.000
22.76000 2890.000
22.80000 3083.000
22.84000 3082.000
22.88000 3085.000
22.92000 3063.000
22.96000 3072.000
23.00000 2873.000
23.04000 2862.000
23.08000 2823.000
23.12000 2850.000
23.16000 2779.000
23.20000 2821.000
23.24000 2770.000
23.28000 2835.000
23.32000 2814.000
23.36000 2862.000
23.40000 2828.000
23.44000 2767.000
23.48000 2767.000
23.52000 2787.000
23.56000 2800.000
23.60000 2695.000
23.64000 2723.000
23.68000 2748.000
23.72000 2765.000
23.76000 2708.000
23.80000 2824.000
23.84000 2915.000
23.88000 2815.000
23.92000 2868.000
23.96000 2880.000
24.00000 3122.000
24.04000 3101.000
24.08000 3234.000
24.12000 3314.000
24.16000 3371.000
24.20000 3539.000
24.24000 3986.000
24.28000 4082.000
24.32000 4424.000
24.36000 4816.000
24.40000 5146.000
24.44000 5266.000
24.48000 5343.000
24.52000 5444.000
24.56000 5204.000
24.60000 5203.000
24.64000 4899.000
24.68000 4758.000
24.72000 4432.000
24.76000 4174.000
24.80000 4078.000
24.84000 3947.000
24.88000 3646.000
24.92000 3690.000
24.96000 3474.000
25.00000 3428.000
25.04000 3465.000
25.08000 3239.000
25.12000 3262.000
25.16000 3146.000
25.20000 3334.000
25.24000 3315.000
25.28000 3260.000
25.32000 3296.000
25.36000 3335.000
25.40000 3406.000
25.44000 3454.000
25.48000 3264.000
25.52000 3425.000
25.56000 3337.000
25.60000 3408.000
25.64000 3267.000
25.68000 3353.000
25.72000 3208.000
25.76000 3201.000
25.80000 3187.000
25.84000 3325.000
25.88000 3246.000
25.92000 3356.000
25.96000 3566.000
26.00000 3718.000
26.04000 3639.000
26.08000 3797.000
26.12000 3693.000
26.16000 3798.000
26.20000 3761.000
26.24000 3783.000
26.28000 3457.000
26.32000 3347.000
26.36000 3208.000
26.40000 3086.000
26.44000 2904.000
26.48000 2833.000
26.52000 2856.000
26.56000 2752.000
26.60000 2862.000
26.64000 2701.000
26.68000 2721.000
26.72000 2706.000
26.76000 2798.000
26.80000 2774.000
26.84000 2831.000
26.88000 2803.000
26.92000 2729.000
26.96000 2724.000
27.00000 2742.000
27.04000 2776.000
27.08000 2765.000
27.12000 2768.000
27.16000 2681.000
27.20000 2722.000
27.24000 2747.000
27.28000 2800.000
27.32000 2932.000
27.36000 2842.000
27.40000 2740.000
27.44000 2881.000
27.48000 2923.000
27.52000 2941.000
27.56000 3026.000
27.60000 2905.000
27.64000 3085.000
27.68000 3124.000
27.72000 3074.000
27.76000 3277.000
27.80000 3341.000
27.84000 3424.000
27.88000 3534.000
27.92000 3618.000
27.96000 3888.000
28.00000 3999.000
28.04000 4433.000
28.08000 4882.000
28.12000 5139.000
28.16000 5521.000
28.20000 5732.000
28.24000 5834.000
28.28000 5933.000
28.32000 5685.000
28.36000 5440.000
28.40000 4973.000
28.44000 4585.000
28.48000 4220.000
28.52000 3879.000
28.56000 3617.000
28.60000 3324.000
28.64000 3245.000
28.68000 3072.000
28.72000 2903.000
28.76000 2908.000
28.80000 2909.000
28.84000 2784.000
28.88000 2662.000
28.92000 2633.000
28.96000 2634.000
29.00000 2610.000
29.04000 2560.000
29.08000 2570.000
29.12000 2552.000
29.16000 2549.000
29.20000 2477.000
29.24000 2479.000
29.28000 2542.000
29.32000 2434.000
29.36000 2486.000
29.40000 2453.000
29.44000 2392.000
29.48000 2395.000
29.52000 2420.000
29.56000 2384.000
29.60000 2383.000
29.64000 2336.000
29.68000 2340.000
29.72000 2346.000
29.76000 2319.000
29.80000 2350.000
29.84000 2300.000
29.88000 2354.000
29.92000 2250.000
29.96000 2367.000
30.00000 2339.000
30.04000 2329.000
30.08000 2265.000
30.12000 2261.000
30.16000 2240.000
30.20000 2193.000
30.24000 2217.000
30.28000 2236.000
30.32000 2318.000
30.36000 2204.000
30.40000 2183.000
30.44000 2304.000
30.48000 2292.000
30.52000 2257.000
30.56000 2272.000
30.60000 2390.000
30.64000 2302.000
30.68000 2289.000
30.72000 2304.000
30.76000 2376.000
30.80000 2370.000
30.84000 2417.000
30.88000 2420.000
30.92000 2379.000
30.96000 2445.000
31.00000 2416.000
31.04000 2395.000
31.08000 2525.000
31.12000 2522.000
31.16000 2502.000
31.20000 2546.000
31.24000 2472.000
31.28000 2681.000
31.32000 2689.000
31.36000 2751.000
31.40000 2871.000
31.44000 2937.000
31.48000 3108.000
31.52000 3144.000
31.56000 3296.000
31.60000 3425.000
31.64000 3574.000
31.68000 3716.000
31.72000 3578.000
31.76000 3636.000
31.80000 3509.000
31.84000 3396.000
31.88000 3152.000
31.92000 3102.000
31.96000 2937.000
32.00000 2768.000
32.04000 2648.000
32.08000 2572.000
32.12000 2339.000
32.16000 2278.000
32.20000 2147.000
32.24000 2111.000
32.28000 2215.000
32.32000 2027.000
32.36000 2016.000
32.40000 1955.000
32.44000 1971.000
32.48000 1946.000
32.52000 1988.000
32.56000 1913.000
32.60000 1894.000
32.64000 1923.000
32.68000 1846.000
32.72000 1943.000
32.76000 1786.000
32.80000 1860.000
32.84000 1884.000
32.88000 1887.000
32.92000 1851.000
32.96000 1837.000
33.00000 1820.000
33.04000 1782.000
33.08000 1813.000
33.12000 1867.000
33.16000 1835.000
33.20000 1767.000
33.24000 1826.000
33.28000 1803.000
33.32000 1789.000
33.36000 1770.000
33.40000 1735.000
33.44000 1734.000
33.48000 1761.000
33.52000 1787.000
33.56000 1756.000
33.60000 1761.000
33.64000 1761.000
33.68000 1769.000
33.72000 1658.000
33.76000 1737.000
33.80000 1657.000
33.84000 1633.000
33.88000 1697.000
33.92000 1680.000
33.96000 1739.000
34.00000 1681.000
34.04000 1714.000
34.08000 1694.000
34.12000 1666.000
34.16000 1653.000
34.20000 1724.000
34.24000 1634.000
34.28000 1667.000
34.32000 1717.000
34.36000 1649.000
34.40000 1670.000
34.44000 1646.000
34.48000 1652.000
34.52000 1665.000
34.56000 1719.000
34.60000 1681.000
34.64000 1755.000
34.68000 1852.000
34.72000 1804.000
34.76000 1934.000
34.80000 1902.000
34.84000 1926.000
34.88000 2006.000
34.92000 2043.000
34.96000 2057.000
35.00000 2050.000
35.04000 2012.000
35.08000 1991.000
35.12000 1927.000
35.16000 1772.000
35.20000 1788.000
35.24000 1708.000
35.28000 1656.000
35.32000 1659.000
35.36000 1580.000
35.40000 1574.000
35.44000 1508.000
35.48000 1485.000
35.52000 1531.000
35.56000 1490.000
35.60000 1442.000
35.64000 1475.000
35.68000 1557.000
35.72000 1586.000
35.76000 1503.000
35.80000 1508.000
35.84000 1510.000
35.88000 1483.000
35.92000 1454.000
35.96000 1422.000
36.00000 1388.000
36.04000 1370.000
36.08000 1431.000
36.12000 1427.000
36.16000 1431.000
36.20000 1482.000
36.24000 1422.000
36.28000 1375.000
36.32000 1420.000
36.36000 1413.000
36.40000 1368.000
36.44000 1337.000
36.48000 1414.000
36.52000 1418.000
36.56000 1395.000
36.60000 1440.000
36.64000 1405.000
36.68000 1307.000
36.72000 1355.000
36.76000 1368.000
36.80000 1387.000
36.84000 1419.000
36.88000 1341.000
36.92000 1386.000
36.96000 1384.000
37.00000 1355.000
37.04000 1339.000
37.08000 1316.000
37.12000 1376.000
37.16000 1306.000
37.20000 1295.000
37.24000 1339.000
37.28000 1369.000
37.32000 1304.000
37.36000 1342.000
37.40000 1313.000
37.44000 1312.000
37.48000 1387.000
37.52000 1326.000
37.56000 1389.000
37.60000 1339.000
37.64000 1351.000
37.68000 1327.000
37.72000 1357.000
37.76000 1358.000
37.80000 1250.000
37.84000 1255.000
37.88000 1319.000
37.92000 1300.000
37.96000 1299.000
38.00000 1307.000
38.04000 1363.000
38.08000 1335.000
38.12000 1377.000
38.16000 1355.000
38.20000 1514.000
38.24000 1488.000
38.28000 1595.000
38.32000 1626.000
38.36000 1755.000
38.40000 1874.000
38.44000 2198.000
38.48000 2429.000
38.52000 2659.000
38.56000 2933.000
38.60000 3158.000
38.64000 3129.000
38.68000 3274.000
38.72000 3130.000
38.76000 3135.000
38.80000 2773.000
38.84000 2613.000
38.88000 2317.000
38.92000 2009.000
38.96000 1769.000
39.00000 1744.000
39.04000 1602.000
39.08000 1531.000
39.12000 1441.000
39.16000 1368.000
39.20000 1342.000
39.24000 1425.000
39.28000 1476.000
39.32000 1633.000
39.36000 1600.000
39.40000 1677.000
39.44000 1762.000
39.48000 1814.000
39.52000 1771.000
39.56000 1785.000
39.60000 1700.000
39.64000 1606.000
39.68000 1477.000
39.72000 1440.000
39.76000 1372.000
39.80000 1339.000
39.84000 1278.000
39.88000 1330.000
39.92000 1269.000
39.96000 1303.000
40.00000 1319.000
40.04000 1307.000
40.08000 1237.000
40.12000 1428.000
40.16000 1400.000
40.20000 1419.000
40.24000 1464.000
40.28000 1565.000
40.32000 1695.000
40.36000 1835.000
40.40000 1993.000
40.44000 2023.000
40.48000 2119.000
40.52000 2253.000
40.56000 2303.000
40.60000 2389.000
40.64000 2373.000
40.68000 2275.000
40.72000 2211.000
40.76000 2178.000
40.80000 2077.000
40.84000 1897.000
40.88000 1783.000
40.92000 1679.000
40.96000 1705.000
41.00000 1563.000
41.04000 1507.000
41.08000 1489.000
41.12000 1417.000
41.16000 1399.000
41.20000 1354.000
41.24000 1337.000
41.28000 1364.000
41.32000 1325.000
41.36000 1297.000
41.40000 1342.000
41.44000 1393.000
41.48000 1402.000
41.52000 1310.000
41.56000 1362.000
41.60000 1338.000
41.64000 1382.000
41.68000 1347.000
41.72000 1276.000
41.76000 1359.000
41.80000 1244.000
41.84000 1241.000
41.88000 1316.000
41.92000 1378.000
41.96000 1274.000
42.00000 1286.000
42.04000 1272.000
42.08000 1167.000
42.12000 1245.000
42.16000 1260.000
42.20000 1262.000
42.24000 1274.000
42.28000 1247.000
42.32000 1183.000
42.36000 1176.000
42.40000 1270.000
42.44000 1295.000
42.48000 1263.000
42.52000 1221.000
42.56000 1339.000
42.60000 1384.000
42.64000 1404.000
42.68000 1423.000
42.72000 1451.000
42.76000 1503.000
42.80000 1719.000
42.84000 1739.000
42.88000 2013.000
42.92000 2028.000
42.96000 2036.000
43.00000 2216.000
43.04000 2183.000
43.08000 2241.000
43.12000 2227.000
43.16000 1982.000
43.20000 2086.000
43.24000 1880.000
43.28000 1761.000
43.32000 1753.000
43.36000 1706.000
43.40000 1504.000
43.44000 1413.000
43.48000 1398.000
43.52000 1410.000
43.56000 1376.000
43.60000 1330.000
43.64000 1335.000
43.68000 1334.000
43.72000 1222.000
43.76000 1282.000
43.80000 1256.000
43.84000 1238.000
43.88000 1204.000
43.92000 1243.000
43.96000 1202.000
44.00000 1170.000
44.04000 1141.000
44.08000 1172.000
44.12000 1163.000
44.16000 1175.000
44.20000 1179.000
44.24000 1113.000
44.28000 1184.000
44.32000 1176.000
44.36000 1174.000
44.40000 1145.000
44.44000 1137.000
44.48000 1142.000
44.52000 1180.000
44.56000 1142.000
44.60000 1172.000
44.64000 1106.000
44.68000 1111.000
44.72000 1189.000
44.76000 1150.000
44.80000 1186.000
44.84000 1145.000
44.88000 1116.000
44.92000 1131.000
44.96000 1148.000
45.00000 1159.000
45.04000 1136.000
45.08000 1121.000
45.12000 1127.000
45.16000 1076.000
45.20000 1134.000
45.24000 1122.000
45.28000 1112.000
45.32000 1161.000
45.36000 1183.000
45.40000 1085.000
45.44000 1127.000
45.48000 1157.000
45.52000 1134.000
45.56000 1139.000
45.60000 1193.000
45.64000 1132.000
45.68000 1084.000
45.72000 1147.000
45.76000 1140.000
45.80000 1150.000
45.84000 1108.000
45.88000 1224.000
45.92000 1158.000
45.96000 1182.000
46.00000 1087.000
46.04000 1165.000
46.08000 1129.000
46.12000 1151.000
46.16000 1182.000
46.20000 1097.000
46.24000 1200.000
46.28000 1107.000
46.32000 1146.000
46.36000 1148.000
46.40000 1077.000
46.44000 1109.000
46.48000 1082.000
46.52000 1168.000
46.56000 1124.000
46.60000 1098.000
46.64000 1125.000
46.68000 1129.000
46.72000 1086.000
46.76000 1083.000
46.80000 1056.000
46.84000 1082.000
46.88000 1065.000
46.92000 1070.000
46.96000 1048.000
47.00000 1116.000
47.04000 1126.000
47.08000 1105.000
47.12000 1122.000
47.16000 1081.000
47.20000 1087.000
47.24000 1003.000
47.28000 1108.000
47.32000 1131.000
47.36000 1075.000
47.40000 1105.000
47.44000 1103.000
47.48000 1114.000
47.52000 1072.000
47.56000 1053.000
47.60000 1095.000
47.64000 1147.000
47.68000 1180.000
47.72000 1151.000
47.76000 1155.000
47.80000 1134.000
47.84000 1120.000
47.88000 1191.000
47.92000 1138.000
47.96000 1137.000
48.00000 1203.000
48.04000 1106.000
48.08000 1150.000
48.12000 1088.000
48.16000 1212.000
48.20000 1111.000
48.24000 1146.000
48.28000 1177.000
48.32000 1158.000
48.36000 1133.000
48.40000 1127.000
48.44000 1068.000
48.48000 1160.000
48.52000 1111.000
48.56000 1134.000
48.60000 1077.000
48.64000 1141.000
48.68000 1156.000
48.72000 1075.000
48.76000 1106.000
48.80000 1166.000
48.84000 1144.000
48.88000 1139.000
48.92000 1090.000
48.96000 1189.000
49.00000 1187.000
49.04000 1230.000
49.08000 1285.000
49.12000 1200.000
49.16000 1341.000
49.20000 1293.000
49.24000 1339.000
49.28000 1292.000
49.32000 1295.000
49.36000 1267.000
49.40000 1295.000
49.44000 1224.000
49.48000 1257.000
49.52000 1263.000
49.56000 1273.000
49.60000 1207.000
49.64000 1237.000
49.68000 1271.000
49.72000 1266.000
49.76000 1273.000
49.80000 1321.000
49.84000 1348.000
49.88000 1430.000
49.92000 1508.000
49.96000 1520.000
50.00000 1693.000
50.04000 1799.000
50.08000 1838.000
50.12000 1936.000
50.16000 1915.000
50.20000 2083.000
50.24000 1942.000
50.28000 1993.000
50.32000 2029.000
50.36000 1918.000
50.40000 1881.000
50.44000 1829.000
50.48000 1834.000
50.52000 1676.000
50.56000 1544.000
50.60000 1587.000
50.64000 1400.000
50.68000 1426.000
50.72000 1378.000
50.76000 1393.000
50.80000 1308.000
50.84000 1205.000
50.88000 1186.000
50.92000 1227.000
50.96000 1245.000
51.00000 1208.000
51.04000 1159.000
51.08000 1172.000
51.12000 1199.000
51.16000 1171.000
51.20000 1200.000
51.24000 1150.000
51.28000 1188.000
51.32000 1095.000
51.36000 1120.000
51.40000 1139.000
51.44000 1121.000
51.48000 1077.000
51.52000 1149.000
51.56000 1127.000
51.60000 1140.000
51.64000 1096.000
51.68000 1132.000
51.72000 1122.000
51.76000 1170.000
51.80000 1139.000
51.84000 1180.000
51.88000 1201.000
51.92000 1292.000
51.96000 1263.000
52.00000 1346.000
52.04000 1373.000
52.08000 1564.000
52.12000 1585.000
52.16000 1712.000
52.20000 1868.000
52.24000 1976.000
52.28000 2226.000
52.32000 2370.000
52.36000 2464.000
52.40000 2519.000
52.44000 2673.000
52.48000 2472.000
52.52000 2401.000
52.56000 2181.000
52.60000 2052.000
52.64000 1880.000
52.68000 1677.000
52.72000 1480.000
52.76000 1379.000
52.80000 1284.000
52.84000 1283.000
52.88000 1207.000
52.92000 1161.000
52.96000 1115.000
53.00000 1091.000
53.04000 1080.000
53.08000 1106.000
53.12000 1055.000
53.16000 1062.000
53.20000 1032.000
53.24000 1047.000
53.28000 1034.000
53.32000 995.000
53.36000 1033.000
53.40000 1037.000
53.44000 1014.000
53.48000 1012.000
53.52000 986.000
53.56000 986.000
53.60000 1055.000
53.64000 983.000
53.68000 996.000
53.72000 1012.000
53.76000 1000.000
53.80000 1028.000
53.84000 1026.000
53.88000 988.000
53.92000 986.000
53.96000 997.000
54.00000 1008.000
54.04000 1017.000
54.08000 966.000
54.12000 943.000
54.16000 1022.000
54.20000 1037.000
54.24000 1001.000
54.28000 992.000
54.32000 946.000
54.36000 980.000
54.40000 1022.000
54.44000 1056.000
54.48000 1019.000
54.52000 944.000
54.56000 977.000
54.60000 1039.000
54.64000 1031.000
54.68000 990.000
54.72000 996.000
54.76000 1012.000
54.80000 1058.000
54.84000 1038.000
54.88000 991.000
54.92000 946.000
54.96000 951.000
55.00000 983.000
55.04000 963.000
55.08000 979.000
55.12000 962.000
55.16000 1014.000
55.20000 982.000
55.24000 929.000
55.28000 947.000
55.32000 988.000
55.36000 1023.000
55.40000 976.000
55.44000 971.000
55.48000 1009.000
55.52000 1041.000
55.56000 992.000
55.60000 935.000
55.64000 961.000
55.68000 1033.000
55.72000 1013.000
55.76000 953.000
55.80000 979.000
55.84000 939.000
55.88000 1036.000
55.92000 962.000
55.96000 946.000
56.00000 995.000
56.04000 1000.000
56.08000 970.000
56.12000 907.000
56.16000 1045.000
56.20000 970.000
56.24000 978.000
56.28000 994.000
56.32000 982.000
56.36000 1033.000
56.40000 942.000
56.44000 1028.000
56.48000 1015.000
56.52000 990.000
56.56000 1008.000
56.60000 993.000
56.64000 982.000
56.68000 985.000
56.72000 1006.000
56.76000 977.000
56.80000 992.000
56.84000 943.000
56.88000 992.000
56.92000 908.000
56.96000 957.000
57.00000 956.000
57.04000 962.000
57.08000 986.000
57.12000 926.000
57.16000 916.000
57.20000 1004.000
57.24000 955.000
57.28000 938.000
57.32000 985.000
57.36000 1012.000
57.40000 959.000
57.44000 916.000
57.48000 1006.000
57.52000 990.000
57.56000 936.000
57.60000 995.000
57.64000 962.000
57.68000 959.000
57.72000 1003.000
57.76000 936.000
57.80000 962.000
57.84000 912.000
57.88000 944.000
57.92000 1001.000
57.96000 1038.000
58.00000 1011.000
58.04000 925.000
58.08000 1010.000
58.12000 965.000
58.16000 921.000
58.20000 1001.000
58.24000 1065.000
58.28000 1012.000
58.32000 984.000
58.36000 1059.000
58.40000 1005.000
58.44000 1067.000
58.48000 996.000
58.52000 1075.000
58.56000 1065.000
58.60000 1017.000
58.64000 1008.000
58.68000 985.000
58.72000 1076.000
58.76000 1008.000
58.80000 1036.000
58.84000 1049.000
58.88000 1030.000
58.92000 977.000
58.96000 1020.000
59.00000 965.000
59.04000 998.000
59.08000 946.000
59.12000 1029.000
59.16000 1013.000
59.20000 954.000
59.24000 937.000
59.28000 992.000
59.32000 988.000
59.36000 1028.000
59.40000 957.000
59.44000 975.000
59.48000 958.000
59.52000 995.000
59.56000 1004.000
59.60000 956.000
59.64000 958.000
59.68000 996.000
59.72000 954.000
59.76000 973.000
59.80000 993.000
59.84000 955.000
59.88000 989.000
59.92000 929.000
59.96000 1005.000
60.00000 1003.000
60.04000 1025.000
60.08000 985.000
60.12000 1021.000
60.16000 1017.000
60.20000 982.000
60.24000 1026.000
60.28000 1038.000
60.32000 1066.000
60.36000 1138.000
60.40000 1141.000
60.44000 1128.000
60.48000 1168.000
60.52000 1181.000
60.56000 1235.000
60.60000 1315.000
60.64000 1263.000
60.68000 1241.000
60.72000 1275.000
60.76000 1269.000
60.80000 1285.000
60.84000 1276.000
60.88000 1171.000
60.92000 1143.000
60.96000 1097.000
61.00000 1140.000
61.04000 1068.000
61.08000 1047.000
61.12000 1111.000
61.16000 1108.000
61.20000 1065.000
61.24000 1063.000
61.28000 1031.000
61.32000 995.000
61.36000 1024.000
61.40000 989.000
61.44000 960.000
61.48000 1006.000
61.52000 969.000
61.56000 971.000
61.60000 1001.000
61.64000 1020.000
61.68000 986.000
61.72000 962.000
61.76000 967.000
61.80000 976.000
61.84000 992.000
61.88000 981.000
61.92000 933.000
61.96000 941.000
62.00000 930.000
62.04000 950.000
62.08000 917.000
62.12000 983.000
62.16000 976.000
62.20000 988.000
62.24000 996.000
62.28000 1022.000
62.32000 1023.000
62.36000 955.000
62.40000 992.000
62.44000 953.000
62.48000 985.000
62.52000 997.000
62.56000 1056.000
62.60000 1033.000
62.64000 1011.000
62.68000 1017.000
62.72000 1080.000
62.76000 943.000
62.80000 1005.000
62.84000 1003.000
62.88000 978.000
62.92000 1009.000
62.96000 1041.000
63.00000 1022.000
63.04000 1034.000
63.08000 1015.000
63.12000 956.000
63.16000 999.000
63.20000 992.000
63.24000 975.000
63.28000 961.000
63.32000 1012.000
63.36000 1006.000
63.40000 937.000
63.44000 929.000
63.48000 947.000
63.52000 922.000
63.56000 937.000
63.60000 959.000
63.64000 943.000
63.68000 1023.000
63.72000 983.000
63.76000 992.000
63.80000 1007.000
63.84000 964.000
63.88000 927.000
63.92000 922.000
63.96000 927.000
64.00000 1022.000
64.04000 996.000
64.08000 933.000
64.12000 938.000
64.16000 931.000
64.20000 1034.000
64.24000 961.000
64.28000 969.000
64.32000 964.000
64.36000 889.000
64.40000 924.000
64.44000 936.000
64.48000 928.000
64.52000 927.000
64.56000 941.000
64.60000 984.000
64.64000 977.000
64.68000 975.000
64.72000 982.000
64.76000 947.000
64.80000 1000.000
64.84000 910.000
64.88000 921.000
64.92000 981.000
64.96000 897.000
65.00000 949.000
65.04000 952.000
65.08000 1021.000
65.12000 990.000
65.16000 926.000
65.20000 932.000
65.24000 957.000
65.28000 923.000
65.32000 950.000
65.36000 928.000
65.40000 946.000
65.44000 935.000
65.48000 895.000
65.52000 907.000
65.56000 941.000
65.60000 953.000
65.64000 927.000
65.68000 950.000
65.72000 957.000
65.76000 955.000
65.80000 906.000
65.84000 947.000
65.88000 942.000
65.92000 931.000
65.96000 955.000
66.00000 928.000
66.04000 1022.000
66.08000 1002.000
66.12000 955.000
66.16000 949.000
66.20000 1026.000
66.24000 988.000
66.28000 961.000
66.32000 997.000
66.36000 985.000
66.40000 929.000
66.44000 980.000
66.48000 950.000
66.52000 930.000
66.56000 1010.000
66.60000 973.000
66.64000 943.000
66.68000 932.000
66.72000 938.000
66.76000 909.000
66.80000 923.000
66.84000 883.000
66.88000 926.000
66.92000 892.000
66.96000 968.000
67.00000 909.000
67.04000 908.000
67.08000 884.000
67.12000 913.000
67.16000 938.000
67.20000 947.000
67.24000 950.000
67.28000 888.000
67.32000 945.000
67.36000 956.000
67.40000 963.000
67.44000 912.000
67.48000 940.000
67.52000 953.000
67.56000 933.000
67.60000 901.000
67.64000 920.000
67.68000 956.000
67.72000 973.000
67.76000 895.000
67.80000 964.000
67.84000 932.000
67.88000 924.000
67.92000 914.000
67.96000 953.000
68.00000 974.000
68.04000 945.000
68.08000 952.000
68.12000 928.000
68.16000 959.000
68.20000 927.000
68.24000 982.000
68.28000 1014.000
68.32000 1000.000
68.36000 983.000
68.40000 982.000
68.44000 951.000
68.48000 931.000
68.52000 939.000
68.56000 977.000
68.60000 956.000
68.64000 947.000
68.68000 960.000
68.72000 932.000
68.76000 948.000
68.80000 913.000
68.84000 877.000
68.88000 877.000
68.92000 846.000
68.96000 893.000
69.00000 872.000
69.04000 864.000
69.08000 892.000
69.12000 855.000
69.16000 836.000
69.20000 872.000
69.24000 889.000
69.28000 850.000
69.32000 846.000
69.36000 842.000
69.40000 829.000
69.44000 846.000
69.48000 898.000
69.52000 864.000
69.56000 828.000
69.60000 818.000
69.64000 880.000
69.68000 811.000
69.72000 873.000
69.76000 796.000
69.80000 824.000
69.84000 809.000
69.88000 824.000
69.92000 752.000
