5.00000 7993.000
5.04000 6203.000
5.08000 5395.000
5.12000 4866.000
5.16000 4513.000
5.20000 4498.000
5.24000 4224.000
5.28000 4190.000
5.32000 4023.000
5.36000 3987.000
5.40000 3855.000
5.44000 3805.000
5.48000 3640.000
5.52000 3699.000
5.56000 3661.000
5.60000 3433.000
5.64000 3390.000
5.68000 3322.000
5.72000 3291.000
5.76000 3120.000
5.80000 3034.000
5.84000 2945.000
5.88000 2928.000
5.92000 2868.000
5.96000 2816.000
6.00000 2780.000
6.04000 2745.000
6.08000 2699.000
6.12000 2700.000
6.16000 2625.000
6.20000 2591.000
6.24000 2478.000
6.28000 2458.000
6.32000 2425.000
6.36000 2434.000
6.40000 2413.000
6.44000 2391.000
6.48000 2177.000
6.52000 2266.000
6.56000 2193.000
6.60000 2180.000
6.64000 2148.000
6.68000 2063.000
6.72000 2160.000
6.76000 2027.000
6.80000 2015.000
6.84000 2065.000
6.88000 1953.000
6.92000 2070.000
6.96000 2013.000
7.00000 1902.000
7.04000 1902.000
7.08000 1838.000
7.12000 1816.000
7.16000 1816.000
7.20000 1771.000
7.24000 1746.000
7.28000 1780.000
7.32000 1798.000
7.36000 1781.000
7.40000 1727.000
7.44000 1710.000
7.48000 1664.000
7.52000 1694.000
7.56000 1628.000
7.60000 1669.000
7.64000 1600.000
7.68000 1556.000
7.72000 1598.000
7.76000 1567.000
7.80000 1615.000
7.84000 1577.000
7.88000 1460.000
7.92000 1447.000
7.96000 1520.000
8.00000 1497.000
8.04000 1405.000
8.08000 1464.000
8.12000 1439.000
8.16000 1426.000
8.20000 1439.000
8.24000 1344.000
8.28000 1377.000
8.32000 1428.000
8.36000 1459.000
8.40000 1384.000
8.44000 1361.000
8.48000 1358.000
8.52000 1427.000
8.56000 1368.000
8.60000 1432.000
8.64000 1371.000
8.68000 1498.000
8.72000 1519.000
8.76000 1572.000
8.80000 1545.000
8.84000 1719.000
8.88000 1820.000
8.92000 2080.000
8.96000 2433.000
9.00000 3055.000
9.04000 4291.000
9.08000 6121.000
9.12000 7331.000
9.16000 6406.000
9.20000 4244.000
9.24000 2671.000
9.28000 2063.000
9.32000 1637.000
9.36000 1533.000
9.40000 1371.000
9.44000 1520.000
9.48000 1425.000
9.52000 1512.000
9.56000 1412.000
9.60000 1507.000
9.64000 1619.000
9.68000 1798.000
9.72000 2135.000
9.76000 2912.000
9.80000 4500.000
9.84000 8758.000
9.88000 18313.000
9.92000 28056.000
9.96000 25151.000
10.00000 14441.000
10.04000 7432.000
10.08000 3983.000
10.12000 2693.000
10.16000 2039.000
10.20000 1804.000
10.24000 1806.000
10.28000 1842.000
10.32000 1979.000
10.36000 2028.000
10.40000 2119.000
10.44000 2190.000
10.48000 2327.000
10.52000 2372.000
10.56000 2477.000
10.60000 2670.000
10.64000 2719.000
10.68000 2820.000
10.72000 2936.000
10.76000 3036.000
10.80000 3059.000
10.84000 3132.000
10.88000 3362.000
10.92000 3513.000
10.96000 3292.000
11.00000 3104.000
11.04000 2904.000
11.08000 2735.000
11.12000 2572.000
11.16000 2325.000
11.20000 2276.000
11.24000 2135.000
11.28000 1943.000
11.32000 1867.000
11.36000 1734.000
11.40000 1609.000
11.44000 1514.000
11.48000 1433.000
11.52000 1396.000
11.56000 1348.000
11.60000 1186.000
11.64000 1067.000
11.68000 1065.000
11.72000 1120.000
11.76000 1069.000
11.80000 960.000
11.84000 996.000
11.88000 997.000
11.92000 938.000
11.96000 1030.000
12.00000 921.000
12.04000 908.000
12.08000 878.000
12.12000 921.000
12.16000 887.000
12.20000 866.000
12.24000 921.000
12.28000 876.000
12.32000 932.000
12.36000 873.000
12.40000 881.000
12.44000 897.000
12.48000 908.000
12.52000 852.000
12.56000 870.000
12.60000 898.000
12.64000 905.000
12.68000 881.000
12.72000 908.000
12.76000 917.000
12.80000 912.000
12.84000 914.000
12.88000 929.000
12.92000 986.000
12.96000 941.000
13.00000 876.000
13.04000 885.000
13.08000 858.000
13.12000 933.000
13.16000 885.000
13.20000 968.000
13.24000 858.000
13.28000 907.000
13.32000 963.000
13.36000 947.000
13.40000 983.000
13.44000 1023.000
13.48000 1027.000
13.52000 1005.000
13.56000 977.000
13.60000 924.000
13.64000 956.000
13.68000 951.000
13.72000 943.000
13.76000 942.000
13.80000 914.000
13.84000 945.000
13.88000 932.000
13.92000 959.000
13.96000 956.000
14.00000 1001.000
14.04000 946.000
14.08000 928.000
14.12000 1006.000
14.16000 1136.000
14.20000 1234.000
14.24000 1392.000
14.28000 1476.000
14.32000 1356.000
14.36000 1358.000
14.40000 1368.000
14.44000 1330.000
14.48000 1465.000
14.52000 1399.000
14.56000 1584.000
14.60000 1900.000
14.64000 2340.000
14.68000 3035.000
14.72000 4465.000
14.76000 7481.000
14.80000 15450.000
14.84000 35063.000
14.88000 65617.000
14.92000 76671.000
14.96000 55173.000
15.00000 28473.000
15.04000 13278.000
15.08000 6703.000
15.12000 3735.000
15.16000 2489.000
15.20000 1842.000
15.24000 1501.000
15.28000 1383.000
15.32000 1235.000
15.36000 1172.000
15.40000 1090.000
15.44000 1144.000
15.48000 1085.000
15.52000 1046.000
15.56000 1026.000
15.60000 1115.000
15.64000 1060.000
15.68000 1098.000
15.72000 1128.000
15.76000 1166.000
15.80000 1315.000
15.84000 1347.000
15.88000 1327.000
15.92000 1220.000
15.96000 1193.000
16.00000 1124.000
16.04000 1006.000
16.08000 1041.000
16.12000 979.000
16.16000 989.000
16.20000 1011.000
16.24000 1021.000
16.28000 996.000
16.32000 1018.000
16.36000 1007.000
16.40000 982.000
16.44000 991.000
16.48000 1000.000
16.52000 1048.000
16.56000 1015.000
16.60000 967.000
16.64000 1015.000
16.68000 990.000
16.72000 1069.000
16.76000 991.000
16.80000 1030.000
16.84000 997.000
16.88000 966.000
16.92000 1060.000
16.96000 994.000
17.00000 1005.000
17.04000 1051.000
17.08000 1079.000
17.12000 1068.000
17.16000 1054.000
17.20000 1050.000
17.24000 1107.000
17.28000 1046.000
17.32000 1032.000
17.36000 1098.000
17.40000 1053.000
17.44000 1064.000
17.48000 1101.000
17.52000 1165.000
17.56000 1153.000
17.60000 1157.000
17.64000 1127.000
17.68000 1054.000
17.72000 1143.000
17.76000 1133.000
17.80000 1209.000
17.84000 1208.000
17.88000 1175.000
17.92000 1235.000
17.96000 1341.000
18.00000 1291.000
18.04000 1543.000
18.08000 1642.000
18.12000 1908.000
18.16000 2460.000
18.20000 3296.000
18.24000 4497.000
18.28000 5773.000
18.32000 5562.000
18.36000 4139.000
18.40000 2890.000
18.44000 1990.000
18.48000 1609.000
18.52000 1486.000
18.56000 1387.000
18.60000 1351.000
18.64000 1288.000
18.68000 1185.000
18.72000 1273.000
18.76000 1194.000
18.80000 1239.000
18.84000 1205.000
18.88000 1286.000
18.92000 1196.000
18.96000 1231.000
19.00000 1297.000
19.04000 1228.000
19.08000 1272.000
19.12000 1250.000
19.16000 1239.000
19.20000 1315.000
19.24000 1310.000
19.28000 1240.000
19.32000 1295.000
19.36000 1318.000
19.40000 1264.000
19.44000 1262.000
19.48000 1308.000
19.52000 1235.000
19.56000 1315.000
19.60000 1342.000
19.64000 1383.000
19.68000 1353.000
19.72000 1345.000
19.76000 1301.000
19.80000 1354.000
19.84000 1394.000
19.88000 1380.000
19.92000 1396.000
19.96000 1412.000
20.00000 1423.000
20.04000 1384.000
20.08000 1437.000
20.12000 1366.000
20.16000 1362.000
20.20000 1450.000
20.24000 1492.000
20.28000 1390.000
20.32000 1462.000
20.36000 1477.000
20.40000 1421.000
20.44000 1452.000
20.48000 1433.000
20.52000 1458.000
20.56000 1497.000
20.60000 1547.000
20.64000 1511.000
20.68000 1582.000
20.72000 1630.000
20.76000 1550.000
20.80000 1467.000
20.84000 1516.000
20.88000 1513.000
20.92000 1458.000
20.96000 1600.000
21.00000 1562.000
21.04000 1575.000
21.08000 1565.000
21.12000 1613.000
21.16000 1553.000
21.20000 1583.000
21.24000 1682.000
21.28000 1687.000
21.32000 1691.000
21.36000 1764.000
21.40000 1726.000
21.44000 1816.000
21.48000 1772.000
21.52000 1828.000
21.56000 1808.000
21.60000 1892.000
21.64000 1996.000
21.68000 1968.000
21.72000 1853.000
21.76000 2043.000
21.80000 2017.000
21.84000 2032.000
21.88000 2055.000
21.92000 2199.000
21.96000 2191.000
22.00000 2151.000
22.04000 2103.000
22.08000 2018.000
22.12000 1995.000
22.16000 1971.000
22.20000 1968.000
22.24000 1967.000
22.28000 1956.000
22.32000 1896.000
22.36000 2023.000
22.40000 1987.000
22.44000 2006.000
22.48000 2010.000
22.52000 1971.000
22.56000 1905.000
22.60000 1898.000
22.64000 1826.000
22.68000 1784.000
22.72000 1784.000
22.76000 1785.000
22.80000 1721.000
22.84000 1767.000
22.88000 1684.000
22.92000 1684.000
22.96000 1702.000
23.00000 1660.000
23.04000 1629.000
23.08000 1676.000
23.12000 1595.000
23.16000 1696.000
23.20000 1640.000
23.24000 1611.000
23.28000 1772.000
23.32000 1626.000
23.36000 1731.000
23.40000 1692.000
23.44000 1699.000
23.48000 1704.000
23.52000 1651.000
23.56000 1673.000
23.60000 1676.000
23.64000 1675.000
23.68000 1659.000
23.72000 1712.000
23.76000 1654.000
23.80000 1714.000
23.84000 1709.000
23.88000 1764.000
23.92000 1644.000
23.96000 1672.000
24.00000 1731.000
24.04000 1664.000
24.08000 1725.000
24.12000 1730.000
24.16000 1652.000
24.20000 1693.000
24.24000 1737.000
24.28000 1715.000
24.32000 1748.000
24.36000 1686.000
24.40000 1732.000
24.44000 1702.000
24.48000 1724.000
24.52000 1723.000
24.56000 1732.000
24.60000 1718.000
24.64000 1823.000
24.68000 1778.000
24.72000 1731.000
24.76000 1944.000
24.80000 2080.000
24.84000 2641.000
24.88000 3925.000
24.92000 6232.000
24.96000 7611.000
25.00000 7066.000
25.04000 5217.000
25.08000 3664.000
25.12000 2589.000
25.16000 2090.000
25.20000 1929.000
25.24000 1783.000
25.28000 1841.000
25.32000 1790.000
25.36000 1710.000
25.40000 1736.000
25.44000 1653.000
25.48000 1699.000
25.52000 1633.000
25.56000 1604.000
25.60000 1668.000
25.64000 1706.000
25.68000 1607.000
25.72000 1550.000
25.76000 1687.000
25.80000 1744.000
25.84000 1700.000
25.88000 1719.000
25.92000 1698.000
25.96000 1711.000
26.00000 1580.000
26.04000 1612.000
26.08000 1609.000
26.12000 1615.000
26.16000 1626.000
26.20000 1687.000
26.24000 1653.000
26.28000 1583.000
26.32000 1624.000
26.36000 1631.000
26.40000 1705.000
26.44000 1700.000
26.48000 1595.000
26.52000 1612.000
26.56000 1629.000
26.60000 1601.000
26.64000 1566.000
26.68000 1576.000
26.72000 1603.000
26.76000 1569.000
26.80000 1509.000
26.84000 1567.000
26.88000 1525.000
26.92000 1636.000
26.96000 1547.000
27.00000 1566.000
27.04000 1604.000
27.08000 1603.000
27.12000 1628.000
27.16000 1559.000
27.20000 1561.000
27.24000 1585.000
27.28000 1632.000
27.32000 1731.000
27.36000 1774.000
27.40000 1896.000
27.44000 2154.000
27.48000 2529.000
27.52000 3311.000
27.56000 4098.000
27.60000 4121.000
27.64000 3763.000
27.68000 3030.000
27.72000 2390.000
27.76000 1933.000
27.80000 1757.000
27.84000 1596.000
27.88000 1600.000
27.92000 1520.000
27.96000 1581.000
28.00000 1478.000
28.04000 1463.000
28.08000 1519.000
28.12000 1570.000
28.16000 1517.000
28.20000 1469.000
28.24000 1432.000
28.28000 1479.000
28.32000 1390.000
28.36000 1470.000
28.40000 1495.000
28.44000 1461.000
28.48000 1544.000
28.52000 1441.000
28.56000 1538.000
28.60000 1460.000
28.64000 1496.000
28.68000 1510.000
28.72000 1541.000
28.76000 1565.000
28.80000 1532.000
28.84000 1448.000
28.88000 1536.000
28.92000 1550.000
28.96000 1432.000
29.00000 1485.000
29.04000 1509.000
29.08000 1448.000
29.12000 1483.000
29.16000 1498.000
29.20000 1420.000
29.24000 1421.000
29.28000 1503.000
29.32000 1497.000
29.36000 1422.000
29.40000 1476.000
29.44000 1459.000
29.48000 1503.000
29.52000 1455.000
29.56000 1538.000
29.60000 1521.000
29.64000 1519.000
29.68000 1516.000
29.72000 1500.000
29.76000 1608.000
29.80000 1710.000
29.84000 1918.000
29.88000 2252.000
29.92000 3111.000
29.96000 4675.000
30.00000 8684.000
30.04000 12079.000
30.08000 12114.000
30.12000 10059.000
30.16000 6858.000
30.20000 4168.000
30.24000 2687.000
30.28000 2109.000
30.32000 1755.000
30.36000 1554.000
30.40000 1607.000
30.44000 1549.000
30.48000 1452.000
30.52000 1480.000
30.56000 1486.000
30.60000 1512.000
30.64000 1458.000
30.68000 1412.000
30.72000 1420.000
30.76000 1390.000
30.80000 1354.000
30.84000 1382.000
30.88000 1275.000
30.92000 1347.000
30.96000 1313.000
31.00000 1276.000
31.04000 1313.000
31.08000 1380.000
31.12000 1353.000
31.16000 1502.000
31.20000 1429.000
31.24000 1464.000
31.28000 1329.000
31.32000 1339.000
31.36000 1318.000
31.40000 1269.000
31.44000 1369.000
31.48000 1276.000
31.52000 1308.000
31.56000 1258.000
31.60000 1334.000
31.64000 1360.000
31.68000 1350.000
31.72000 1304.000
31.76000 1384.000
31.80000 1312.000
31.84000 1288.000
31.88000 1372.000
31.92000 1380.000
31.96000 1492.000
32.00000 1480.000
32.04000 1470.000
32.08000 1566.000
32.12000 1428.000
32.16000 1425.000
32.20000 1341.000
32.24000 1252.000
32.28000 1296.000
32.32000 1208.000
32.36000 1224.000
32.40000 1267.000
32.44000 1200.000
32.48000 1201.000
32.52000 1143.000
32.56000 1126.000
32.60000 1206.000
32.64000 1243.000
32.68000 1236.000
32.72000 1255.000
32.76000 1224.000
32.80000 1361.000
32.84000 1235.000
32.88000 1227.000
32.92000 1288.000
32.96000 1263.000
33.00000 1190.000
33.04000 1319.000
33.08000 1312.000
33.12000 1366.000
33.16000 1352.000
33.20000 1368.000
33.24000 1345.000
33.28000 1356.000
33.32000 1340.000
33.36000 1261.000
33.40000 1237.000
33.44000 1313.000
33.48000 1287.000
33.52000 1223.000
33.56000 1302.000
33.60000 1390.000
33.64000 1425.000
33.68000 1536.000
33.72000 1455.000
33.76000 1287.000
33.80000 1271.000
33.84000 1236.000
33.88000 1259.000
33.92000 1134.000
33.96000 1170.000
34.00000 1142.000
34.04000 1085.000
34.08000 1141.000
34.12000 1128.000
34.16000 1086.000
34.20000 1110.000
34.24000 1124.000
34.28000 1122.000
34.32000 1129.000
34.36000 1131.000
34.40000 1175.000
34.44000 1116.000
34.48000 1151.000
34.52000 1156.000
34.56000 1143.000
34.60000 1144.000
34.64000 1212.000
34.68000 1221.000
34.72000 1219.000
34.76000 1307.000
34.80000 1395.000
34.84000 1371.000
34.88000 1535.000
34.92000 1903.000
34.96000 2311.000
35.00000 3164.000
35.04000 4620.000
35.08000 8083.000
35.12000 16425.000
35.16000 32750.000
35.20000 46932.000
35.24000 44991.000
35.28000 36790.000
35.32000 26709.000
35.36000 15209.000
35.40000 7667.000
35.44000 4440.000
35.48000 2823.000
35.52000 2105.000
35.56000 1701.000
35.60000 1528.000
35.64000 1367.000
35.68000 1299.000
35.72000 1248.000
35.76000 1212.000
35.80000 1155.000
35.84000 1091.000
35.88000 1103.000
35.92000 1073.000
35.96000 1027.000
36.00000 1004.000
36.04000 1018.000
36.08000 975.000
36.12000 958.000
36.16000 1004.000
36.20000 943.000
36.24000 951.000
36.28000 927.000
36.32000 953.000
36.36000 997.000
36.40000 980.000
36.44000 940.000
36.48000 865.000
36.52000 867.000
36.56000 853.000
36.60000 806.000
36.64000 832.000
36.68000 831.000
36.72000 869.000
36.76000 808.000
36.80000 875.000
36.84000 778.000
36.88000 847.000
36.92000 839.000
36.96000 864.000
37.00000 935.000
37.04000 913.000
37.08000 893.000
37.12000 935.000
37.16000 912.000
37.20000 812.000
37.24000 810.000
37.28000 792.000
37.32000 763.000
37.36000 796.000
37.40000 783.000
37.44000 850.000
37.48000 764.000
37.52000 797.000
37.56000 769.000
37.60000 767.000
37.64000 766.000
37.68000 724.000
37.72000 749.000
37.76000 760.000
37.80000 780.000
37.84000 751.000
37.88000 767.000
37.92000 737.000
37.96000 750.000
38.00000 735.000
38.04000 719.000
38.08000 742.000
38.12000 706.000
38.16000 706.000
38.20000 789.000
38.24000 759.000
38.28000 733.000
38.32000 730.000
38.36000 776.000
38.40000 687.000
38.44000 744.000
38.48000 764.000
38.52000 787.000
38.56000 763.000
38.60000 866.000
38.64000 1055.000
38.68000 1033.000
38.72000 998.000
38.76000 869.000
38.80000 765.000
38.84000 796.000
38.88000 775.000
38.92000 809.000
38.96000 863.000
39.00000 804.000
39.04000 803.000
39.08000 802.000
39.12000 834.000
39.16000 817.000
39.20000 833.000
39.24000 878.000
39.28000 887.000
39.32000 856.000
39.36000 924.000
39.40000 1039.000
39.44000 1039.000
39.48000 1004.000
39.52000 1011.000
39.56000 962.000
39.60000 989.000
39.64000 983.000
39.68000 906.000
39.72000 907.000
39.76000 911.000
39.80000 909.000
39.84000 942.000
39.88000 1030.000
39.92000 1000.000
39.96000 1005.000
40.00000 1039.000
40.04000 1177.000
40.08000 1280.000
40.12000 1442.000
40.16000 1755.000
40.20000 2453.000
40.24000 3359.000
40.28000 5257.000
40.32000 9611.000
40.36000 20006.000
40.40000 37704.000
40.44000 47828.000
40.48000 42187.000
40.52000 35338.000
40.56000 27228.000
40.60000 16309.000
40.64000 8634.000
40.68000 4717.000
40.72000 2882.000
40.76000 2021.000
40.80000 1554.000
40.84000 1296.000
40.88000 1244.000
40.92000 1038.000
40.96000 1034.000
41.00000 1022.000
41.04000 945.000
41.08000 903.000
41.12000 913.000
41.16000 851.000
41.20000 838.000
41.24000 858.000
41.28000 828.000
41.32000 807.000
41.36000 732.000
41.40000 754.000
41.44000 772.000
41.48000 794.000
41.52000 742.000
41.56000 732.000
41.60000 723.000
41.64000 718.000
41.68000 743.000
41.72000 776.000
41.76000 721.000
41.80000 701.000
41.84000 702.000
41.88000 735.000
41.92000 732.000
41.96000 721.000
42.00000 690.000
42.04000 702.000
42.08000 690.000
42.12000 792.000
42.16000 711.000
42.20000 709.000
42.24000 703.000
42.28000 725.000
42.32000 697.000
42.36000 672.000
42.40000 681.000
42.44000 701.000
42.48000 700.000
42.52000 675.000
42.56000 672.000
42.60000 695.000
42.64000 691.000
42.68000 693.000
42.72000 629.000
42.76000 685.000
42.80000 739.000
42.84000 702.000
42.88000 682.000
42.92000 692.000
42.96000 666.000
43.00000 688.000
43.04000 708.000
43.08000 689.000
43.12000 740.000
43.16000 621.000
43.20000 709.000
43.24000 644.000
43.28000 738.000
43.32000 705.000
43.36000 712.000
43.40000 653.000
43.44000 711.000
43.48000 695.000
43.52000 677.000
43.56000 671.000
43.60000 692.000
43.64000 663.000
43.68000 728.000
43.72000 680.000
43.76000 690.000
43.80000 684.000
43.84000 699.000
43.88000 715.000
43.92000 701.000
43.96000 776.000
44.00000 710.000
44.04000 766.000
44.08000 808.000
44.12000 781.000
44.16000 793.000
44.20000 780.000
44.24000 787.000
44.28000 840.000
44.32000 817.000
44.36000 863.000
44.40000 893.000
44.44000 898.000
44.48000 913.000
44.52000 918.000
44.56000 911.000
44.60000 957.000
44.64000 979.000
44.68000 997.000
44.72000 950.000
44.76000 938.000
44.80000 925.000
44.84000 928.000
44.88000 917.000
44.92000 868.000
44.96000 900.000
45.00000 883.000
45.04000 800.000
45.08000 805.000
45.12000 740.000
45.16000 768.000
45.20000 777.000
45.24000 790.000
45.28000 730.000
45.32000 708.000
45.36000 690.000
45.40000 726.000
45.44000 770.000
45.48000 745.000
45.52000 697.000
45.56000 747.000
45.60000 789.000
45.64000 917.000
45.68000 1145.000
45.72000 1573.000
45.76000 1770.000
45.80000 1597.000
45.84000 1411.000
45.88000 1375.000
45.92000 1166.000
45.96000 967.000
46.00000 801.000
46.04000 762.000
46.08000 716.000
46.12000 716.000
46.16000 604.000
46.20000 724.000
46.24000 708.000
46.28000 710.000
46.32000 634.000
46.36000 627.000
46.40000 669.000
46.44000 608.000
46.48000 683.000
46.52000 660.000
46.56000 634.000
46.60000 619.000
46.64000 610.000
46.68000 670.000
46.72000 745.000
46.76000 805.000
46.80000 901.000
46.84000 905.000
46.88000 783.000
46.92000 777.000
46.96000 746.000
47.00000 698.000
47.04000 659.000
47.08000 626.000
47.12000 634.000
47.16000 609.000
47.20000 629.000
47.24000 638.000
47.28000 591.000
47.32000 552.000
47.36000 597.000
47.40000 588.000
47.44000 635.000
47.48000 583.000
47.52000 608.000
47.56000 566.000
47.60000 614.000
47.64000 586.000
47.68000 596.000
47.72000 559.000
47.76000 656.000
47.80000 630.000
47.84000 631.000
47.88000 563.000
47.92000 550.000
47.96000 621.000
48.00000 586.000
48.04000 623.000
48.08000 617.000
48.12000 592.000
48.16000 578.000
48.20000 597.000
48.24000 552.000
48.28000 588.000
48.32000 595.000
48.36000 586.000
48.40000 607.000
48.44000 590.000
48.48000 605.000
48.52000 593.000
48.56000 599.000
48.60000 606.000
48.64000 598.000
48.68000 596.000
48.72000 582.000
48.76000 592.000
48.80000 557.000
48.84000 546.000
48.88000 621.000
48.92000 625.000
48.96000 592.000
49.00000 645.000
49.04000 587.000
49.08000 579.000
49.12000 598.000
49.16000 592.000
49.20000 625.000
49.24000 569.000
49.28000 542.000
49.32000 556.000
49.36000 553.000
49.40000 530.000
49.44000 592.000
49.48000 609.000
49.52000 583.000
49.56000 514.000
49.60000 567.000
49.64000 589.000
49.68000 556.000
49.72000 567.000
49.76000 564.000
49.80000 582.000
49.84000 564.000
49.88000 573.000
49.92000 588.000
49.96000 544.000
50.00000 551.000
50.04000 547.000
50.08000 509.000
50.12000 545.000
50.16000 543.000
50.20000 553.000
50.24000 526.000
50.28000 548.000
50.32000 585.000
50.36000 558.000
50.40000 581.000
50.44000 600.000
50.48000 537.000
50.52000 580.000
50.56000 573.000
50.60000 585.000
50.64000 564.000
50.68000 572.000
50.72000 595.000
50.76000 571.000
50.80000 568.000
50.84000 576.000
50.88000 593.000
50.92000 581.000
50.96000 539.000
51.00000 575.000
51.04000 607.000
51.08000 592.000
51.12000 688.000
51.16000 815.000
51.20000 841.000
51.24000 760.000
51.28000 795.000
51.32000 732.000
51.36000 645.000
51.40000 599.000
51.44000 594.000
51.48000 591.000
51.52000 561.000
51.56000 598.000
51.60000 509.000
51.64000 553.000
51.68000 532.000
51.72000 539.000
51.76000 602.000
51.80000 544.000
51.84000 596.000
51.88000 559.000
51.92000 545.000
51.96000 545.000
52.00000 508.000
52.04000 544.000
52.08000 562.000
52.12000 582.000
52.16000 542.000
52.20000 534.000
52.24000 546.000
52.28000 552.000
52.32000 582.000
52.36000 535.000
52.40000 580.000
52.44000 535.000
52.48000 578.000
52.52000 575.000
52.56000 547.000
52.60000 542.000
52.64000 548.000
52.68000 586.000
52.72000 552.000
52.76000 560.000
52.80000 514.000
52.84000 584.000
52.88000 577.000
52.92000 519.000
52.96000 548.000
53.00000 551.000
53.04000 537.000
53.08000 565.000
53.12000 584.000
53.16000 567.000
53.20000 561.000
53.24000 509.000
53.28000 539.000
53.32000 520.000
53.36000 601.000
53.40000 530.000
53.44000 545.000
53.48000 520.000
53.52000 571.000
53.56000 540.000
53.60000 540.000
53.64000 557.000
53.68000 577.000
53.72000 604.000
53.76000 511.000
53.80000 512.000
53.84000 595.000
53.88000 511.000
53.92000 555.000
53.96000 582.000
54.00000 546.000
54.04000 556.000
54.08000 573.000
54.12000 553.000
54.16000 560.000
54.20000 578.000
54.24000 543.000
54.28000 550.000
54.32000 583.000
54.36000 519.000
54.40000 541.000
54.44000 520.000
54.48000 527.000
54.52000 552.000
54.56000 589.000
54.60000 572.000
54.64000 552.000
54.68000 516.000
54.72000 568.000
54.76000 525.000
54.80000 545.000
54.84000 516.000
54.88000 537.000
54.92000 525.000
54.96000 542.000
55.00000 568.000
55.04000 559.000
55.08000 588.000
55.12000 558.000
55.16000 575.000
55.20000 553.000
55.24000 562.000
55.28000 526.000
55.32000 527.000
55.36000 571.000
55.40000 566.000
55.44000 540.000
55.48000 587.000
55.52000 576.000
55.56000 630.000
55.60000 577.000
55.64000 549.000
55.68000 526.000
55.72000 527.000
55.76000 593.000
55.80000 612.000
55.84000 605.000
55.88000 530.000
55.92000 577.000
55.96000 605.000
56.00000 570.000
56.04000 574.000
56.08000 581.000
56.12000 586.000
56.16000 588.000
56.20000 569.000
56.24000 617.000
56.28000 629.000
56.32000 615.000
56.36000 627.000
56.40000 626.000
56.44000 682.000
56.48000 718.000
56.52000 788.000
56.56000 903.000
56.60000 1251.000
56.64000 2003.000
56.68000 3298.000
56.72000 4689.000
56.76000 4681.000
56.80000 3725.000
56.84000 3312.000
56.88000 3425.000
56.92000 3004.000
56.96000 2097.000
57.00000 1546.000
57.04000 1210.000
57.08000 958.000
57.12000 834.000
57.16000 720.000
57.20000 742.000
57.24000 642.000
57.28000 670.000
57.32000 585.000
57.36000 584.000
57.40000 594.000
57.44000 568.000
57.48000 583.000
57.52000 584.000
57.56000 567.000
57.60000 594.000
57.64000 558.000
57.68000 575.000
57.72000 555.000
57.76000 562.000
57.80000 540.000
57.84000 519.000
57.88000 596.000
57.92000 589.000
57.96000 551.000
58.00000 567.000
58.04000 565.000
58.08000 532.000
58.12000 545.000
58.16000 572.000
58.20000 554.000
58.24000 544.000
58.28000 536.000
58.32000 563.000
58.36000 531.000
58.40000 589.000
58.44000 537.000
58.48000 555.000
58.52000 550.000
58.56000 580.000
58.60000 554.000
58.64000 574.000
58.68000 532.000
58.72000 571.000
58.76000 541.000
58.80000 550.000
58.84000 574.000
58.88000 544.000
58.92000 587.000
58.96000 580.000
59.00000 527.000
59.04000 564.000
59.08000 537.000
59.12000 563.000
59.16000 542.000
59.20000 569.000
59.24000 572.000
59.28000 522.000
59.32000 572.000
59.36000 543.000
59.40000 549.000
59.44000 544.000
59.48000 540.000
59.52000 545.000
59.56000 547.000
59.60000 549.000
59.64000 530.000
59.68000 549.000
59.72000 527.000
59.76000 552.000
59.80000 548.000
59.84000 527.000
59.88000 563.000
59.92000 508.000
59.96000 513.000
60.00000 554.000
60.04000 481.000
60.08000 490.000
60.12000 532.000
60.16000 556.000
60.20000 520.000
60.24000 567.000
60.28000 515.000
60.32000 565.000
60.36000 561.000
60.40000 539.000
60.44000 481.000
60.48000 529.000
60.52000 494.000
60.56000 513.000
60.60000 533.000
60.64000 527.000
60.68000 535.000
60.72000 537.000
60.76000 506.000
60.80000 540.000
60.84000 563.000
60.88000 566.000
60.92000 521.000
60.96000 592.000
61.00000 532.000
61.04000 548.000
61.08000 501.000
61.12000 521.000
61.16000 520.000
61.20000 542.000
61.24000 542.000
61.28000 531.000
61.32000 531.000
61.36000 515.000
61.40000 543.000
61.44000 554.000
61.48000 555.000
61.52000 539.000
61.56000 518.000
61.60000 546.000
61.64000 542.000
61.68000 563.000
61.72000 581.000
61.76000 540.000
61.80000 554.000
61.84000 568.000
61.88000 571.000
61.92000 522.000
61.96000 548.000
62.00000 574.000
62.04000 579.000
62.08000 576.000
62.12000 635.000
62.16000 610.000
62.20000 557.000
62.24000 587.000
62.28000 625.000
62.32000 699.000
62.36000 879.000
62.40000 1062.000
62.44000 1139.000
62.48000 1086.000
62.52000 935.000
62.56000 846.000
62.60000 860.000
62.64000 818.000
62.68000 788.000
62.72000 650.000
62.76000 597.000
62.80000 578.000
62.84000 583.000
62.88000 523.000
62.92000 557.000
62.96000 508.000
63.00000 529.000
63.04000 570.000
63.08000 473.000
63.12000 498.000
63.16000 550.000
63.20000 557.000
63.24000 535.000
63.28000 545.000
63.32000 517.000
63.36000 541.000
63.40000 534.000
63.44000 519.000
63.48000 530.000
63.52000 504.000
63.56000 571.000
63.60000 493.000
63.64000 541.000
63.68000 523.000
63.72000 522.000
63.76000 514.000
63.80000 501.000
63.84000 476.000
63.88000 521.000
63.92000 513.000
63.96000 526.000
64.00000 528.000
64.04000 503.000
64.08000 518.000
64.12000 531.000
64.16000 500.000
64.20000 554.000
64.24000 504.000
64.28000 508.000
64.32000 518.000
64.36000 559.000
64.40000 505.000
64.44000 528.000
64.48000 521.000
64.52000 546.000
64.56000 544.000
64.60000 530.000
64.64000 528.000
64.68000 547.000
64.72000 485.000
64.76000 551.000
64.80000 555.000
64.84000 512.000
64.88000 518.000
64.92000 539.000
64.96000 566.000
65.00000 546.000
65.04000 575.000
65.08000 558.000
65.12000 505.000
65.16000 527.000
65.20000 580.000
65.24000 530.000
65.28000 516.000
65.32000 483.000
65.36000 515.000
65.40000 524.000
65.44000 497.000
65.48000 527.000
65.52000 501.000
65.56000 518.000
65.60000 499.000
65.64000 539.000
65.68000 527.000
65.72000 552.000
65.76000 507.000
65.80000 502.000
65.84000 523.000
65.88000 518.000
65.92000 525.000
65.96000 477.000
66.00000 477.000
66.04000 505.000
66.08000 515.000
66.12000 537.000
66.16000 529.000
66.20000 474.000
66.24000 477.000
66.28000 522.000
66.32000 538.000
66.36000 462.000
66.40000 544.000
66.44000 492.000
66.48000 565.000
66.52000 483.000
66.56000 478.000
66.60000 500.000
66.64000 497.000
66.68000 514.000
66.72000 522.000
66.76000 493.000
66.80000 463.000
66.84000 519.000
66.88000 511.000
66.92000 487.000
66.96000 513.000
67.00000 456.000
67.04000 520.000
67.08000 539.000
67.12000 476.000
67.16000 483.000
67.20000 524.000
67.24000 466.000
67.28000 516.000
67.32000 484.000
67.36000 512.000
67.40000 506.000
67.44000 508.000
67.48000 503.000
67.52000 501.000
67.56000 548.000
67.60000 543.000
67.64000 514.000
67.68000 483.000
67.72000 529.000
67.76000 545.000
67.80000 520.000
67.84000 523.000
67.88000 485.000
67.92000 470.000
67.96000 487.000
68.00000 471.000
68.04000 499.000
68.08000 508.000
68.12000 551.000
68.16000 561.000
68.20000 648.000
68.24000 780.000
68.28000 965.000
68.32000 1071.000
68.36000 994.000
68.40000 809.000
68.44000 762.000
68.48000 804.000
68.52000 839.000
68.56000 734.000
68.60000 624.000
68.64000 578.000
68.68000 521.000
68.72000 510.000
68.76000 569.000
68.80000 533.000
68.84000 549.000
68.88000 571.000
68.92000 552.000
68.96000 520.000
69.00000 542.000
69.04000 561.000
69.08000 583.000
69.12000 547.000
69.16000 559.000
69.20000 586.000
69.24000 568.000
69.28000 605.000
69.32000 633.000
69.36000 555.000
69.40000 608.000
69.44000 594.000
69.48000 554.000
69.52000 564.000
69.56000 624.000
69.60000 564.000
69.64000 566.000
69.68000 598.000
69.72000 555.000
69.76000 583.000
69.80000 556.000
69.84000 534.000
69.88000 552.000
69.92000 550.000
